blank,,blank2,,blank3,,
Wavelength (nm),Abs,Wavelength (nm),Abs,Wavelength (nm),Abs,
799.9968262,0.0009569706162,799.9968262,0.0004192443448,799.9968262,0.0009253990138,
798.9871826,0.0007510055439,798.9871826,0.001217205659,798.9871826,0.0004167309962,
798.0119019,0.0005919234827,798.0119019,0.0008925846778,798.0119019,0.001234676223,
797.0014038,0.0006907725474,797.0014038,0.0003816491517,797.0014038,0.0002422566758,
795.9905396,0.001228290144,795.9905396,0.0003984901705,795.9905396,0.0001544631523,
795.0140991,0.0004111602029,795.0140991,0.0009223898523,795.0140991,4.007332609E-005,
794.0025024,0.0009160343907,794.0025024,0.001177438884,794.0025024,0.001104507945,
792.9903564,0.0005187020288,792.9903564,0.0003818305267,792.9903564,0.0002627443755,
792.0128784,0.0003247314307,792.0128784,0.0003998892789,792.0128784,0.0003292648762,
790.999939,0.0009437917033,790.999939,0.0007531837327,790.999939,0.0007096219924,
789.9866333,0.0002495865629,789.9866333,-0.0001037903276,789.9866333,6.267445133E-005,
789.0079956,9.866263281E-005,789.0079956,-0.0006483734469,789.0079956,-0.0002356019395,
787.9938965,0.0001972181926,787.9938965,0.0003452748351,787.9938965,0.0003065462515,
787.0144653,-1.496183177E-005,787.0144653,1.084635642E-005,787.0144653,-0.0002763741941,
785.9996338,-0.0004053403682,785.9996338,-0.0005421795649,785.9996338,-0.0002821689122,
784.984375,0.0001963894611,784.984375,0.0003510520328,784.984375,-1.967289063E-005,
784.0037842,-0.0001743846369,784.0037842,0.0001136801657,784.0037842,-0.0001318948634,
782.9877319,-0.0008219295996,782.9877319,-0.0003523721243,782.9877319,-0.0005677739391,
782.0064087,-0.0001524416002,782.0064087,-0.0003992369166,782.0064087,-0.0003517513687,
780.989563,2.070882374E-006,780.989563,-1.837864875E-005,780.989563,-0.0002703724313,
780.0075684,-0.0007171736215,780.0075684,-0.00101344299,780.0075684,-0.0007576423232,
778.9899292,-0.0005010185414,778.9899292,-0.0003355595691,778.9899292,-0.0002371025039,
778.0071411,-0.0009445864707,778.0071411,-0.0004817294539,778.0071411,-0.000326506386,
776.9887695,-0.000493985659,776.9887695,-0.0008147468325,776.9887695,-0.0008602700545,
776.005188,-0.0005160665605,776.005188,-0.0004292877566,776.005188,-0.001160882413,
774.9860229,-0.0002744080848,774.9860229,-0.0009658179479,774.9860229,-0.0005416107597,
774.001709,-0.0008167621563,774.001709,-0.0009380256524,774.001709,-0.0007401218754,
773.0169678,-0.0003563553037,773.0169678,-0.0002345670655,773.0169678,-0.0006290908786,
771.9967041,-0.000881918997,771.9967041,-0.0008227563812,771.9967041,-0.0009658179479,
771.0112305,-0.0004500272917,771.0112305,-0.0003416638938,771.0112305,-0.0005711864214,
769.9902344,-0.0002115403768,769.9902344,-0.0004919688217,769.9902344,-0.0001763511827,
769.0039673,-0.0004303221649,769.0039673,-0.0001035832902,769.0039673,-0.0005254777498,
768.0174561,-0.0003073647385,768.0174561,-1.827510823E-005,768.0174561,-0.0001081381124,
766.9953003,0.0002264059149,766.9953003,0.0005266067456,766.9953003,0.0002212778491,
766.0079346,0.0007445228985,766.0079346,0.0006014107494,766.0079346,0.0006115203723,
764.9850464,0.001319235074,764.9850464,0.001422249363,764.9850464,0.001228368026,
763.9970093,0.001140634529,763.9970093,0.001258715522,763.9970093,0.0009891671361,
763.008667,0.001148784184,763.008667,0.001086445875,763.008667,0.001539705554,
761.9845581,0.001169340569,761.9845581,0.001164980116,761.9845581,0.001169496332,
760.9954224,0.001214090618,760.9954224,0.001120572444,760.9954224,0.001409913297,
760.0059814,0.001140037552,760.0059814,0.0009332333575,760.0059814,0.001120676287,
759.0161133,0.0007368734805,759.0161133,0.000208198966,759.0161133,0.0003750424949,
757.9904785,0.0002273123973,757.9904785,5.073679404E-006,757.9904785,0.0001089159268,
757,-0.0001373292325,757,-0.0004488894774,757,-0.0007221355336,
756.0089722,-0.001101809321,756.0089722,-0.0008556714165,756.0089722,-0.0007575906347,
754.9822998,-0.00111601036,754.9822998,-0.001241991413,754.9822998,-0.001272242051,
753.9906616,-0.001838665572,753.9906616,-0.00173420622,753.9906616,-0.00184139784,
752.9986572,-0.001217520912,752.9986572,-0.001487033442,752.9986572,-0.001704915892,
752.0062866,-0.001899390947,752.0062866,-0.002119436627,752.0062866,-0.002322944114,
751.0135498,-0.002164411126,751.0135498,-0.002068841131,751.0135498,-0.001913101994,
749.9849854,-0.002090069465,749.9849854,-0.002155499067,749.9849854,-0.002495420631,
748.9915771,-0.002700707177,748.9915771,-0.002558576176,748.9915771,-0.00236516865,
747.9978027,-0.002926106798,747.9978027,-0.002804831369,747.9978027,-0.00261431234,
747.0036621,-0.003108830424,747.0036621,-0.003655718639,747.0036621,-0.003051050007,
746.0090942,-0.003752633929,746.0090942,-0.003348352155,746.0090942,-0.003527919529,
745.0142822,-0.003979386296,745.0142822,-0.004366065376,745.0142822,-0.003784455126,
743.9835205,-0.004987179302,743.9835205,-0.005100325216,743.9835205,-0.004805346951,
742.987915,-0.005965830293,742.987915,-0.005252624396,742.987915,-0.005804126151,
741.9920654,-0.006644727197,741.9920654,-0.00703464495,741.9920654,-0.006685921922,
740.9957886,-0.007631914224,740.9957886,-0.007762885187,740.9957886,-0.00756196212,
739.9992065,-0.00816709362,739.9992065,-0.008501075208,739.9992065,-0.008445023559,
739.0021973,-0.009491603822,739.0021973,-0.009326342493,739.0021973,-0.009337338619,
738.0048828,-0.01013345644,738.0048828,-0.01008838881,738.0048828,-0.01015818771,
737.0072021,-0.01073668431,737.0072021,-0.01098031551,737.0072021,-0.0109505821,
736.0091553,-0.01123082358,736.0091553,-0.01107238047,736.0091553,-0.01130180061,
735.0108032,-0.0119906459,735.0108032,-0.01201406308,735.0108032,-0.01213939022,
734.012085,-0.01232884638,734.012085,-0.01238963194,734.012085,-0.0123704616,
733.0130615,-0.01288712211,733.0130615,-0.01320900675,733.0130615,-0.01312246732,
732.0136719,-0.01351344027,732.0136719,-0.01357591711,732.0136719,-0.01355168037,
731.013916,-0.01413489878,731.013916,-0.01422930323,731.013916,-0.01423992496,
730.0137939,-0.01472273935,730.0137939,-0.01456496492,730.0137939,-0.01449862402,
729.0133057,-0.01528749429,729.0133057,-0.01507612225,729.0133057,-0.01498845313,
728.0125732,-0.01529519167,728.0125732,-0.0152645018,728.0125732,-0.01518217102,
727.0114746,-0.01570683345,727.0114746,-0.01585980132,727.0114746,-0.01569944434,
726.0100098,-0.01579350978,726.0100098,-0.01568995602,726.0100098,-0.01573389769,
725.0081787,-0.0161632821,725.0081787,-0.01595727541,725.0081787,-0.01590597071,
724.0060425,-0.01632132381,724.0060425,-0.01630392112,724.0060425,-0.01600962132,
723.00354,-0.01595617831,723.00354,-0.01609718427,723.00354,-0.01617141254,
722.0007935,-0.01632371731,722.0007935,-0.01635049284,722.0007935,-0.01610890776,
720.9975586,-0.01593396999,720.9975586,-0.01593232341,720.9975586,-0.01589204557,
719.9940186,-0.01586229727,719.9940186,-0.01580973342,719.9940186,-0.01578027941,
718.9901733,-0.01567777246,718.9901733,-0.0155310845,718.9901733,-0.0157261584,
717.9859009,-0.01531243417,717.9859009,-0.01502831373,717.9859009,-0.01526690181,
717.017334,-0.01511982456,717.017334,-0.01497744955,717.017334,-0.01494443789,
716.0124512,-0.01439746656,716.0124512,-0.01449231524,716.0124512,-0.01460471377,
715.0072632,-0.01414326765,715.0072632,-0.01417979784,715.0072632,-0.01421166677,
714.00177,-0.01359287743,714.00177,-0.01349406876,714.00177,-0.01347012818,
712.9958496,-0.01251947787,712.9958496,-0.01263419911,712.9958496,-0.01264375355,
711.989624,-0.01239355654,711.989624,-0.01207932457,711.989624,-0.01218434516,
710.9831543,-0.01152363885,710.9831543,-0.01118511334,710.9831543,-0.01145199127,
710.012207,-0.0110522937,710.012207,-0.01111204736,710.012207,-0.01083460823,
709.0049438,-0.009862982668,709.0049438,-0.009801335633,709.0049438,-0.01021285634,
707.9973755,-0.009470936842,707.9973755,-0.009232690558,707.9973755,-0.009651838802,
706.989563,-0.008767019957,706.989563,-0.008321876638,706.989563,-0.008608791977,
706.017395,-0.007294667419,706.017395,-0.007597982418,706.017395,-0.007639799267,
705.0088501,-0.006875529885,705.0088501,-0.006794956513,705.0088501,-0.007010957226,
704,-0.006301712245,704,-0.00614248123,704,-0.00602266239,
702.9907837,-0.005427111406,702.9907837,-0.005343660712,702.9907837,-0.005452317186,
702.017334,-0.004673480988,702.017334,-0.004849993158,702.017334,-0.00467353221,
701.0074463,-0.003348300699,701.0074463,-0.00355919241,701.0074463,-0.00363179436,
699.9973145,-0.002761878073,699.9973145,-0.002662580227,699.9973145,-0.002810078207,
698.9868164,-0.00244847266,698.9868164,-0.002659904538,698.9868164,-0.002669166541,
698.012085,-0.001715539023,698.012085,-0.001682431204,698.012085,-0.001624976518,
697.0009155,-0.0007034247974,697.0009155,-0.000865746988,697.0009155,-0.0006881765439,
695.9894409,-0.0001257358381,695.9894409,4.481092401E-005,695.9894409,-0.0001194731958,
695.0137939,0.0007760035223,695.0137939,0.0008280785987,695.0137939,0.0004238824476,
694.0016479,0.001385398209,694.0016479,0.001889846986,694.0016479,0.001663377974,
692.9891968,0.001869074302,692.9891968,0.002060432918,692.9891968,0.001914182561,
692.0125732,0.002510649152,692.0125732,0.002658689395,692.0125732,0.002426430816,
690.9995117,0.003008952364,690.9995117,0.003149966011,690.9995117,0.003169157077,
689.986084,0.003676858032,689.986084,0.003924074583,689.986084,0.003780041356,
689.0085449,0.004378267564,689.0085449,0.004118117969,689.0085449,0.00387891382,
687.9944458,0.00463828491,687.9944458,0.004671645351,687.9944458,0.005055878777,
687.0162964,0.005216788035,687.0162964,0.005221582484,687.0162964,0.00544768665,
686.0015869,0.005507403519,686.0015869,0.005753880832,686.0015869,0.005705723073,
684.9865723,0.005748109892,684.9865723,0.00610139966,684.9865723,0.005914235488,
684.0074463,0.00680634426,684.0074463,0.006859726273,684.0074463,0.006564735435,
682.9918823,0.007489943411,682.9918823,0.007323609199,682.9918823,0.007253455464,
682.012146,0.007232372183,682.012146,0.007370261475,682.012146,0.007478803396,
680.9958496,0.008224081248,680.9958496,0.007744848263,680.9958496,0.007987166755,
680.015625,0.007923364639,680.015625,0.00815365091,680.015625,0.007852824405,
678.9985962,0.008234818466,678.9985962,0.008385324851,678.9985962,0.008233367465,
678.0177612,0.00879557617,678.0177612,0.008903708309,678.0177612,0.008631698787,
677.0001221,0.009361845441,677.0001221,0.009064754471,677.0001221,0.009118467569,
675.9822998,0.009452420287,675.9822998,0.00963984523,675.9822998,0.00944890175,
675.0004883,0.009801879525,675.0004883,0.01005557552,675.0004883,0.009831005707,
673.9819946,0.009998779744,673.9819946,0.01018972695,673.9819946,0.009939501993,
672.9995728,0.01028166711,672.9995728,0.01031668298,672.9995728,0.01036442723,
672.0168457,0.01085019764,672.0168457,0.01105312351,672.0168457,0.01096409932,
670.9974365,0.0111499466,670.9974365,0.01095422357,670.9974365,0.01117377169,
670.0140991,0.0114960447,670.0140991,0.01132033113,670.0140991,0.01146962494,
668.9940796,0.0115150502,668.9940796,0.01138059516,668.9940796,0.01170379296,
668.0101318,0.01128502097,668.0101318,0.01127928309,668.0101318,0.01133595407,
666.9894409,0.01101650763,666.9894409,0.0111780744,666.9894409,0.01135970838,
666.0049438,0.01084465068,666.0049438,0.0108744828,666.0049438,0.0107939085,
664.9836426,0.01106477994,664.9836426,0.01060725749,664.9836426,0.01083135419,
663.9985962,0.01085407287,663.9985962,0.01085985824,663.9985962,0.0108890282,
663.0131836,0.01107529551,663.0131836,0.01083490998,663.0131836,0.0111268945,
661.9909058,0.01095584314,661.9909058,0.01088448986,661.9909058,0.01085529383,
661.0050049,0.01106793992,661.0050049,0.01066182461,661.0050049,0.01063670218,
659.9821777,0.01053023338,659.9821777,0.01067721192,659.9821777,0.01055601239,
658.9955444,0.0107250493,658.9955444,0.01061656792,658.9955444,0.01040724479,
658.008728,0.01066373475,658.008728,0.01075346675,658.008728,0.01090280432,
656.9849854,0.01072199736,656.9849854,0.01103219949,656.9849854,0.01077174954,
655.9974976,0.01088090613,655.9974976,0.01087708399,655.9974976,0.01102033071,
655.0097656,0.01084624324,655.0097656,0.01094283536,655.0097656,0.01097899303,
653.9851074,0.0108730495,653.9851074,0.01114277635,653.9851074,0.01107739378,
652.9967651,0.01111496985,652.9967651,0.01107800379,652.9967651,0.01103679277,
652.0081787,0.01121507492,652.0081787,0.01077315677,652.0081787,0.01075888053,
650.982605,0.01109529193,650.982605,0.01115247048,650.982605,0.01123143826,
649.9934082,0.01131844427,649.9934082,0.01122684218,649.9934082,0.01123207528,
649.0039673,0.01140860375,649.0039673,0.01123964693,649.0039673,0.01128921937,
648.0141602,0.01154588535,648.0141602,0.01116795465,648.0141602,0.01127880439,
646.9874268,0.01144185103,646.9874268,0.01151321549,646.9874268,0.01135410182,
645.9971313,0.01168916747,645.9971313,0.01135532465,645.9971313,0.01147257444,
645.0064697,0.01150949486,645.0064697,0.01135016978,645.0064697,0.011343739,
644.015564,0.01149351988,644.015564,0.01132779662,644.015564,0.01137610432,
642.9876099,0.01155178715,642.9876099,0.01180432644,642.9876099,0.01148644928,
641.9960938,0.0114187561,641.9960938,0.01138067432,641.9960938,0.01135628112,
641.0043945,0.01158235967,641.0043945,0.01138362475,641.0043945,0.01156199537,
640.0123291,0.01160314959,640.0123291,0.01166036911,640.0123291,0.01158477925,
638.9831543,0.01174376439,638.9831543,0.01181055047,638.9831543,0.01168802381,
637.9906006,0.01171392482,637.9906006,0.01164409611,637.9906006,0.01177623868,
636.9976196,0.01194782648,636.9976196,0.01179179829,636.9976196,0.01173163671,
636.0044556,0.01174344495,636.0044556,0.01183611341,636.0044556,0.01183797605,
635.0110474,0.01183733717,635.0110474,0.01190557517,635.0110474,0.01193750277,
634.0172729,0.0117586581,634.0172729,0.01188713778,634.0172729,0.01166018285,
632.9864502,0.01170195825,632.9864502,0.0118094869,632.9864502,0.01152972318,
631.9921265,0.01173450891,631.9921265,0.01186356694,631.9921265,0.01160123572,
630.9975586,0.01169932541,630.9975586,0.01176458877,630.9975586,0.01181089599,
630.0026245,0.01164250076,630.0026245,0.01169632003,630.0026245,0.01135529764,
629.0075073,0.01154530048,629.0075073,0.01176288631,629.0075073,0.01167504676,
628.012085,0.01149625704,628.012085,0.01169666648,628.012085,0.01145301294,
627.0163574,0.01144017652,627.0163574,0.01136688329,627.0163574,0.01141628437,
625.9835205,0.01133592799,625.9835205,0.01146018878,625.9835205,0.01130460203,
624.9873047,0.01135436818,624.9873047,0.01163314097,624.9873047,0.0114122713,
623.9907227,0.01157361269,623.9907227,0.01130810939,623.9907227,0.0115480125,
622.9939575,0.0115318764,622.9939575,0.01160977036,622.9939575,0.01142702065,
621.9968872,0.01149062254,621.9968872,0.01163236983,621.9968872,0.01123999152,
620.9995117,0.01160256471,620.9995117,0.01142271515,620.9995117,0.01135622803,
620.0018921,0.01139098499,620.0018921,0.01147403661,620.0018921,0.01139340363,
619.0040283,0.0116122691,619.0040283,0.0114397509,619.0040283,0.01139390841,
618.0058594,0.01130505372,618.0058594,0.01161038131,618.0058594,0.01119847316,
617.0073853,0.01135811489,617.0073853,0.01146202348,617.0073853,0.01140961424,
616.008728,0.01154325344,616.008728,0.01120755728,616.008728,0.01140371431,
615.0097656,0.01135513838,615.0097656,0.01181185432,615.0097656,0.01140384749,
614.010498,0.01152267866,614.010498,0.01142832357,614.010498,0.01129139774,
613.0109863,0.01148955896,613.0109863,0.01091100648,613.0109863,0.01127125975,
612.0112305,0.01137830969,612.0112305,0.01142856199,612.0112305,0.0115256831,
611.0111084,0.01140071172,611.0111084,0.01136839762,611.0111084,0.01151845232,
610.0108032,0.01134437695,610.0108032,0.01134363282,610.0108032,0.0112187406,
609.0101929,0.01106828544,609.0101929,0.01095435675,609.0101929,0.01097108144,
608.0093384,0.01139239408,608.0093384,0.01128621679,608.0093384,0.01108172163,
607.0082397,0.01122227404,607.0082397,0.01119414344,607.0082397,0.01127859205,
606.0068359,0.01125550643,606.0068359,0.01125016622,606.0068359,0.0112381056,
605.005188,0.01099683437,605.005188,0.01106400974,605.005188,0.011076889,
604.0032959,0.01089807972,604.0032959,0.01094694994,604.0032959,0.01070204563,
603.0010986,0.01059696544,603.0010986,0.01073595416,603.0010986,0.01072496921,
601.9985962,0.01100931223,601.9985962,0.01071377285,601.9985962,0.01063033566,
600.9959106,0.01099343598,600.9959106,0.01100025885,600.9959106,0.01091331616,
599.9929199,0.01106058434,599.9929199,0.01093601249,599.9929199,0.01078637131,
598.989624,0.01074736379,598.989624,0.01087166928,598.989624,0.01099839993,
597.9862061,0.01082201209,597.9862061,0.01079096273,597.9862061,0.0106828101,
596.9824219,0.01050739922,596.9824219,0.01042821724,596.9824219,0.01036731713,
596.015625,0.01028442383,596.015625,0.01040692627,596.015625,0.01057510916,
595.0112305,0.01056818664,595.0112305,0.01040838473,595.0112305,0.01030679513,
594.0067139,0.01016041823,594.0067139,0.01003753487,594.0067139,0.01035382226,
593.0019531,0.009926312603,593.0019531,0.01047809515,593.0019531,0.01012292411,
591.9969482,0.0102411937,591.9969482,0.01021095458,591.9969482,0.01034491509,
590.9915771,0.01015154179,590.9915771,0.01016706973,590.9915771,0.009997455403,
589.9859619,0.01003960148,589.9859619,0.009921333753,589.9859619,0.009895141236,
589.017395,0.009729710408,589.017395,0.009778898209,589.017395,0.009880550206,
588.0112915,0.009716553614,588.0112915,0.009772491641,588.0112915,0.009756183252,
587.0048828,0.009540208615,587.0048828,0.009743290953,587.0048828,0.009455515072,
585.9983521,0.009632858448,585.9983521,0.009687568061,585.9983521,0.009517002851,
584.9914551,0.009424431249,584.9914551,0.009305828251,584.9914551,0.009375890717,
583.984375,0.009334761649,583.984375,0.009349837899,583.984375,0.009366923943,
583.0143433,0.008806089871,583.0143433,0.009069486521,583.0143433,0.009142287076,
582.0066528,0.008953041397,582.0066528,0.008928942494,582.0066528,0.009000530466,
580.9987793,0.008893192746,580.9987793,0.008775579743,580.9987793,0.008862940595,
579.9907227,0.008614799008,579.9907227,0.008615882136,579.9907227,0.008776293136,
578.9822388,0.008601966314,578.9822388,0.0084212441,578.9822388,0.008364555426,
578.0109863,0.008297584951,578.0109863,0.008418921381,578.0109863,0.008385878988,
577.0021362,0.008138009347,577.0021362,0.008182348683,577.0021362,0.00804430712,
575.992981,0.00797712151,575.992981,0.007839224301,575.992981,0.007876863703,
574.9835815,0.007676997688,574.9835815,0.007695994806,574.9835815,0.007599858567,
574.0114136,0.007429058198,574.0114136,0.007479303982,574.0114136,0.007495842874,
573.0014648,0.007403463591,573.0014648,0.007394274231,573.0014648,0.007354991045,
571.991333,0.006808342878,571.991333,0.006980135571,571.991333,0.006904172245,
571.0183105,0.006805529352,571.0183105,0.006854414009,571.0183105,0.006857438479,
570.0077515,0.006599426735,570.0077515,0.006595169194,570.0077515,0.006622161716,
568.9967651,0.006385436282,568.9967651,0.006353599019,568.9967651,0.006374298129,
567.9857178,0.006129700225,567.9857178,0.006200171541,567.9857178,0.00604506582,
567.0117798,0.005832765251,567.0117798,0.005799472798,567.0117798,0.005758208688,
566.0001831,0.005421710666,566.0001831,0.005391333252,566.0001831,0.005570825189,
564.9882813,0.005135238636,564.9882813,0.005142101552,564.9882813,0.005219564773,
564.0136719,0.004955900367,564.0136719,0.004844610114,564.0136719,0.00501489453,
563.0013428,0.004579890985,563.0013428,0.004745230079,563.0013428,0.00470979698,
561.9887695,0.004327621311,561.9887695,0.004486926831,561.9887695,0.004484180827,
561.0134277,0.00408715196,561.0134277,0.004114877433,561.0134277,0.004105887841,
560.0003052,0.003970702644,560.0003052,0.00385791529,560.0003052,0.003860161174,
558.9869385,0.003591055982,558.9869385,0.003656469751,558.9869385,0.00353361154,
558.0109253,0.003227700712,558.0109253,0.003407109762,558.0109253,0.003352089552,
556.9971313,0.003055247944,556.9971313,0.003057724563,556.9971313,0.003078345442,
555.9830933,0.002752956236,555.9830933,0.002743682126,555.9830933,0.002821370261,
555.0063477,0.00260199327,555.0063477,0.00250825379,555.0063477,0.002580118831,
553.9918213,0.002245891141,553.9918213,0.002223046031,553.9918213,0.002291194629,
553.0146484,0.001957189292,553.0146484,0.001950246515,553.0146484,0.001972011058,
551.9995728,0.001844611252,551.9995728,0.001840036013,551.9995728,0.001858805423,
550.984375,0.001815210679,550.984375,0.001581298071,550.984375,0.001778664067,
550.0064697,0.001466090325,550.0064697,0.001645552344,550.0064697,0.001665560761,
548.9907837,0.001367376302,548.9907837,0.001449415693,548.9907837,0.00142985885,
548.0124512,0.001354496577,548.0124512,0.001485207235,548.0124512,0.001357378904,
546.9962158,0.001145591727,546.9962158,0.001078842324,546.9962158,0.00113339338,
546.017395,0.001080866437,546.017395,0.00105636986,546.017395,0.001121221343,
545.0007324,0.001226602821,545.0007324,0.001131732366,545.0007324,0.001242957427,
543.9838867,0.001298645511,543.9838867,0.001269515487,543.9838867,0.001230652444,
543.0043945,0.001554279355,543.0043945,0.001545940293,543.0043945,0.001511676237,
541.9870605,0.001536821947,541.9870605,0.001498740283,541.9870605,0.00146673969,
541.0071411,0.001382463728,541.0071411,0.001242568018,541.0071411,0.001205031294,
539.9892578,0.00176002807,539.9892578,0.001637705253,539.9892578,0.001712077181,
539.0089111,0.002106055152,539.0089111,0.002216957742,539.0089111,0.002112610266,
537.9905396,0.002556917723,537.9905396,0.002534394618,537.9905396,0.00258295727,
537.0097656,0.002593217418,537.0097656,0.002546137664,537.0097656,0.002624910325,
535.9909058,0.003099488793,535.9909058,0.003126812633,535.9909058,0.003048652783,
535.0097046,0.003644853132,535.0097046,0.003771058982,535.0097046,0.003647933481,
533.9904785,0.003816130105,533.9904785,0.003869615728,533.9904785,0.003806441789,
533.008728,0.003994031809,533.008728,0.003894271562,533.008728,0.003895760281,
531.9890747,0.0047406503,531.9890747,0.004686560016,531.9890747,0.00470508635,
531.006958,0.005460242741,531.006958,0.005369396415,531.006958,0.005286115222,
529.9867554,0.006072260439,529.9867554,0.005956275389,529.9867554,0.005938194226,
529.0042114,0.005939217284,529.0042114,0.005898727104,529.0042114,0.005895132665,
527.9835205,0.006038713735,527.9835205,0.006088404916,527.9835205,0.006130671594,
527.0005493,0.006891653407,527.0005493,0.006850311533,527.0005493,0.006917532999,
526.017334,0.007305444218,526.017334,0.007262325846,526.017334,0.007277093362,
524.9959717,0.007891519926,524.9959717,0.007864449173,524.9959717,0.007840726525,
524.0123291,0.008339908905,524.0123291,0.00831167493,524.0123291,0.008360254578,
522.9906006,0.008890999481,522.9906006,0.008823392913,522.9906006,0.008961841464,
522.0065308,0.009497899562,522.0065308,0.009458954446,522.0065308,0.009295566939,
520.984314,0.009598055854,520.984314,0.009767752141,520.984314,0.009690374136,
519.9998169,0.01022947952,519.9998169,0.01024328824,519.9998169,0.0101536084,
519.0150146,0.01040644944,519.0150146,0.01045056991,519.0150146,0.01047013979,
517.9921265,0.01082867384,517.9921265,0.01077878196,517.9921265,0.0108237369,
517.006958,0.01135125943,517.006958,0.01117735729,517.006958,0.01118476782,
515.9836426,0.01157701574,515.9836426,0.01161827799,515.9836426,0.01167661604,
514.9980469,0.01211160235,514.9980469,0.01217240281,514.9980469,0.01207644213,
514.0122681,0.01228465419,514.0122681,0.01228382904,514.0122681,0.01228982024,
512.9882813,0.0126756588,512.9882813,0.01258406322,512.9882813,0.01255699061,
512.0020752,0.01285616122,512.0020752,0.01284714881,512.0020752,0.01277823001,
511.015625,0.01309262589,511.015625,0.01308710407,511.015625,0.01311396901,
509.9909363,0.01324591972,509.9909363,0.01330215391,509.9909363,0.01329951175,
509.0040894,0.01350222342,509.0040894,0.01344476175,509.0040894,0.01330786664,
508.0169983,0.0137305446,508.0169983,0.01373009011,508.0169983,0.01369266026,
506.9917297,0.01388120372,506.9917297,0.01395281032,506.9917297,0.01401945576,
506.0042419,0.01396906283,506.0042419,0.01395398658,506.0042419,0.01396221947,
505.0164795,0.01407621894,505.0164795,0.01406509522,505.0164795,0.01411223691,
503.9906006,0.01413191855,503.9906006,0.01417093724,503.9906006,0.01411106065,
503.0025024,0.01424754038,503.0025024,0.01419666596,503.0025024,0.01417195331,
502.0140991,0.01419305615,502.0140991,0.0141589297,502.0140991,0.01419982221,
500.9876099,0.01425318513,500.9876099,0.01429430116,500.9876099,0.01425655559,
499.9988708,0.01413793582,499.9988708,0.01416128315,499.9988708,0.01418505888,
499.0098267,0.01398119982,499.0098267,0.01412215829,499.0098267,0.01398272347,
497.982666,0.01403982844,497.982666,0.01401424222,497.982666,0.01402595267,
496.9932556,0.01374083012,496.9932556,0.01372760534,496.9932556,0.01378275361,
496.0036621,0.01371243037,496.0036621,0.01371194888,496.0036621,0.01357633155,
495.013916,0.01363501325,495.013916,0.01351787243,495.013916,0.01359008625,
493.9858704,0.01346670929,493.9858704,0.01366968639,493.9858704,0.01348091476,
492.9956665,0.01338826865,492.9956665,0.01332260016,492.9956665,0.01327976119,
492.0053406,0.01258774102,492.0053406,0.01275410503,492.0053406,0.01263541542,
491.0147095,0.01246558037,491.0147095,0.01245950628,491.0147095,0.01239744108,
489.9858398,0.01249112841,489.9858398,0.01249632426,489.9858398,0.01247450523,
488.9948425,0.01232441235,488.9948425,0.01227623969,488.9948425,0.01228465419,
488.0036316,0.01165989041,488.0036316,0.01167677529,488.0036316,0.01162303705,
487.0122681,0.01154851727,487.0122681,0.01158581581,487.0122681,0.01157565974,
485.9824829,0.01179382019,485.9824829,0.01184925437,485.9824829,0.01176006719,
484.9906921,0.01154128648,484.9906921,0.01161043439,484.9906921,0.01151826605,
483.9986877,0.01092465129,483.9986877,0.01090776827,483.9986877,0.01086641476,
483.0065613,0.0111016389,483.0065613,0.01096457709,483.0065613,0.01097862143,
482.0141296,0.01121844817,482.0141296,0.01122495625,482.0141296,0.01115281507,
480.983429,0.01144860126,480.983429,0.01145936549,480.983429,0.0113075776,
479.9906616,0.01160214003,479.9906616,0.0116376346,479.9906616,0.0116898315,
478.9976501,0.01193840709,478.9976501,0.01179679856,478.9976501,0.01184483897,
478.0044861,0.01210502815,478.0044861,0.01213976555,478.0044861,0.01218765695,
477.0111389,0.01255256776,477.0111389,0.01249611098,477.0111389,0.01234792825,
476.0175476,0.01302801631,476.0175476,0.01290223841,476.0175476,0.01301748026,
474.9855652,0.01339272689,474.9855652,0.01346759032,474.9855652,0.01339195203,
473.9916382,0.01406680699,473.9916382,0.014018788,473.9916382,0.01403611246,
472.997467,0.01452124491,472.997467,0.01457906421,472.997467,0.0144608384,
472.0031433,0.01494189072,472.0031433,0.01489792764,472.0031433,0.0149603514,
471.0086365,0.01557934005,471.0086365,0.01551696192,471.0086365,0.01548879407,
470.0138245,0.01607288979,470.0138245,0.01609349251,470.0138245,0.01611893252,
469.0189514,0.01685901731,469.0189514,0.01676381752,469.0189514,0.01663617417,
467.9855957,0.01729262806,467.9855957,0.01731935143,467.9855957,0.01727533527,
466.9902344,0.01790065505,466.9902344,0.01782650687,466.9902344,0.01774873026,
465.994751,0.01839269325,465.994751,0.01841078699,465.994751,0.0183814317,
464.9990845,0.0189242214,464.9990845,0.01891765185,464.9990845,0.018857738,
464.0032043,0.01948864572,464.0032043,0.01952297799,464.0032043,0.01950814016,
463.0071411,0.02002474479,463.0071411,0.02011019737,463.0071411,0.0201116614,
462.0108643,0.02075175196,462.0108643,0.02069041878,462.0108643,0.02068995684,
461.0144653,0.02112657018,461.0144653,0.02120025083,461.0144653,0.02110901475,
460.0178223,0.02127062902,460.0178223,0.02116043307,460.0178223,0.02117774636,
458.9826965,0.02187418193,458.9826965,0.02181337029,458.9826965,0.02173201926,
457.9856873,0.02240740322,457.9856873,0.02233482525,457.9856873,0.02232152596,
456.9884644,0.02276474796,456.9884644,0.02277871408,456.9884644,0.02269039117,
455.9910889,0.02322221175,455.9910889,0.02312009409,455.9910889,0.02310718037,
454.9935303,0.02350007556,454.9935303,0.02344892733,454.9935303,0.02345081232,
453.9957581,0.02384098433,453.9957581,0.02371542528,453.9957581,0.02381210588,
452.9978333,0.0238791611,452.9978333,0.02400588803,452.9978333,0.02392530255,
451.9997253,0.02428198233,451.9997253,0.02433218993,451.9997253,0.02423126064,
451.0014343,0.02454022877,451.0014343,0.02456512675,451.0014343,0.02455825172,
450.0029297,0.02474408969,450.0029297,0.02479553036,450.0029297,0.0246981103,
449.0042419,0.02487109788,449.0042419,0.02493074909,449.0042419,0.02486487478,
448.0054016,0.02524512634,448.0054016,0.02509244904,448.0054016,0.02507739142,
447.0063477,0.02521632053,447.0063477,0.02520688251,447.0063477,0.02523568831,
446.0071716,0.02538652346,446.0071716,0.02542151697,446.0071716,0.02543392219,
445.0077515,0.02560926229,445.0077515,0.02563161403,445.0077515,0.02557096072,
444.0081482,0.0257732477,444.0081482,0.02583439648,444.0081482,0.02585736476,
443.0083923,0.02623774484,443.0083923,0.02615542337,443.0083923,0.02605494857,
442.0084839,0.0263375733,442.0084839,0.02622820251,442.0084839,0.02627616003,
441.0083923,0.02637184598,441.0083923,0.02632302418,441.0083923,0.026303716,
440.0080566,0.02657557838,440.0080566,0.02645946294,440.0080566,0.02649412863,
439.0075684,0.02641701326,439.0075684,0.02645687573,439.0075684,0.02651091293,
438.0069275,0.02652574331,438.0069275,0.02658510022,438.0069275,0.02638006955,
437.006073,0.02656575479,437.006073,0.02648631483,437.006073,0.02653408237,
436.0050659,0.02658909187,436.0050659,0.02652890794,436.0050659,0.02663111687,
435.0038757,0.02654896863,435.0038757,0.02655249089,435.0038757,0.02656457201,
434.002533,0.02653215639,434.002533,0.0264950376,434.002533,0.02648953348,
433.0009766,0.0265610218,433.0009766,0.02657965198,433.0009766,0.02646887116,
431.9992371,0.02660571411,431.9992371,0.02660453133,431.9992371,0.02649888955,
430.997406,0.02666007169,430.997406,0.02651914023,430.997406,0.02656451613,
429.9952698,0.02648777328,429.9952698,0.02650012635,429.9952698,0.02647024766,
428.993042,0.02654200606,428.993042,0.02648942359,428.993042,0.02650417201,
427.9906006,0.02644333988,427.9906006,0.02646796405,427.9906006,0.02642067149,
426.9880371,0.02637068927,426.9880371,0.02641767263,426.9880371,0.02639668435,
425.9852295,0.02635360882,425.9852295,0.02630033344,425.9852295,0.02625229023,
424.9823303,0.02620076016,424.9823303,0.02619644441,424.9823303,0.02609002218,
424.0177917,0.02607094496,424.0177917,0.02613024041,424.0177917,0.02614772506,
423.0144958,0.02612333931,423.0144958,0.02608141862,423.0144958,0.02605079673,
422.0111084,0.02617348544,422.0111084,0.02592932433,422.0111084,0.0259584263,
421.0074158,0.02592825331,421.0074158,0.02576448582,421.0074158,0.02580156922,
420.0036316,0.0257180389,420.0036316,0.02577165514,420.0036316,0.02571834065,
418.9996948,0.02573256753,418.9996948,0.02562889643,418.9996948,0.02569853887,
417.9955139,0.0256208498,417.9955139,0.02558548562,417.9955139,0.02551775426,
416.9912109,0.02548865601,416.9912109,0.0255491063,416.9912109,0.02554457635,
415.9867554,0.02551863343,415.9867554,0.02543007955,415.9867554,0.02548873797,
414.9821472,0.02532886714,414.9821472,0.02539272606,414.9821472,0.02537815273,
414.0159607,0.0252878461,414.0159607,0.02535263076,414.0159607,0.02528419532,
413.0109253,0.02524611354,413.0109253,0.02533517778,413.0109253,0.0253037326,
412.0058289,0.02517182566,412.0058289,0.02518960088,412.0058289,0.02516661398,
411.0004883,0.02471235767,411.0004883,0.02486906946,411.0004883,0.02478895336,
409.9949951,0.02472759411,409.9949951,0.02480128594,409.9949951,0.0246790126,
408.9893799,0.02469816431,408.9893799,0.02463857271,408.9893799,0.02457611077,
407.983551,0.02460394427,407.983551,0.02460002527,407.983551,0.02454866469,
407.0162659,0.02437290177,407.0162659,0.02438473143,407.0162659,0.02428789437,
406.0101624,0.02418289706,406.0101624,0.02419474907,406.0101624,0.0241544079,
405.0038452,0.0239549242,405.0038452,0.02406752855,405.0038452,0.02394961938,
403.997406,0.02408246696,403.997406,0.0240757633,403.997406,0.02405803464,
402.9907227,0.02419775911,402.9907227,0.02407174185,402.9907227,0.02414753847,
401.9839478,0.02408528514,401.9839478,0.0241828151,401.9839478,0.024123732,
401.0157471,0.02409494482,401.0157471,0.02420668118,401.0157471,0.0241414085,
400.008606,0.0240582265,400.008606,0.02413634583,400.008606,0.02406347916,
399.0013428,0.02419649996,399.0013428,0.02406323329,399.0013428,0.02422597818,
397.9938965,0.02432600223,397.9938965,0.02413336374,397.9938965,0.02413191274,
396.9862671,0.02435658313,396.9862671,0.02442829683,396.9862671,0.02424453571,
396.0172729,0.02444957383,396.0172729,0.02442013659,396.0172729,0.02430319786,
395.0093689,0.02425619587,395.0093689,0.02422958985,395.0093689,0.02418382838,
394.0012817,0.02463901043,394.0012817,0.02461758628,394.0012817,0.02451053634,
392.993042,0.02456589416,392.993042,0.02463898249,392.993042,0.02444020845,
391.9846497,0.02442755736,391.9846497,0.02447397448,391.9846497,0.02434735745,
391.0148926,0.02472852543,391.0148926,0.024863258,391.0148926,0.02471909858,
390.0061951,0.02510262281,390.0061951,0.0249361787,390.0061951,0.02487806045,
388.9972839,0.02520778961,388.9972839,0.02508759499,388.9972839,0.02500828728,
387.9882202,0.02511924505,387.9882202,0.02504714392,387.9882202,0.02508901991,
387.0178833,0.0254631266,387.0178833,0.02530246973,387.0178833,0.02536676452,
386.0085754,0.02560747787,386.0085754,0.02570595406,386.0085754,0.02540661395,
384.999054,0.02572471276,384.999054,0.02570570819,384.999054,0.02569584735,
383.9894104,0.02587934397,383.9894104,0.02573092096,383.9894104,0.0257777255,
383.0184631,0.02608273737,383.0184631,0.02605412342,383.0184631,0.02608688734,
382.0084839,0.02626845986,382.0084839,0.02629263327,382.0084839,0.02631218731,
380.9983521,0.02638964169,380.9983521,0.0263015721,380.9983521,0.02641830593,
379.9880676,0.02696275711,379.9880676,0.02692816406,379.9880676,0.0268509984,
379.0165405,0.02713309601,379.0165405,0.02713871747,379.0165405,0.02714770101,
378.0059509,0.02707250789,378.0059509,0.0270839408,378.0059509,0.02706347033,
376.9952393,0.02770087495,376.9952393,0.02764787711,376.9952393,0.02766227722,
375.984375,0.02828191407,375.984375,0.02831810713,375.984375,0.02808919735,
375.012207,0.02874503657,375.012207,0.02883518115,375.012207,0.0287113525,
374.0010376,0.02927452698,374.0010376,0.02921189368,374.0010376,0.02922260948,
372.9896851,0.02973219566,372.9896851,0.0297444202,372.9896851,0.0297269281,
372.0171204,0.03018601798,372.0171204,0.03020322323,372.0171204,0.03035609797,
371.0055237,0.03085617907,371.0055237,0.03073304892,371.0055237,0.03071618453,
369.9937134,0.03121495619,369.9937134,0.0312628001,369.9937134,0.03120750189,
368.9818115,0.03177512065,368.9818115,0.03177598491,368.9818115,0.03176130727,
368.0086365,0.03191807494,368.0086365,0.03204204142,368.0086365,0.03200110793,
366.9964294,0.03249513358,366.9964294,0.0324090533,366.9964294,0.03238149732,
365.9840393,0.03292002156,365.9840393,0.0328576155,365.9840393,0.03276498243,
365.0104675,0.03324546292,365.0104675,0.03339675814,365.0104675,0.03320966661,
363.9978333,0.03392453492,363.9978333,0.03384211287,363.9978333,0.03380696848,
362.9850159,0.03354072198,362.9850159,0.03357855976,362.9850159,0.03364107013,
362.0109863,0.03372817859,362.0109863,0.03374412656,362.0109863,0.03368937969,
360.9979248,0.03424770385,360.9979248,0.03412445262,360.9979248,0.03415175527,
359.9846497,0.03478445485,359.9846497,0.03465045244,359.9846497,0.03487920016,
359.0102539,0.03501335904,359.0102539,0.03498328105,359.0102539,0.03496936336,
357.9967346,0.03505800292,357.9967346,0.03498002514,357.9967346,0.03479446843,
356.9830322,0.03546579927,356.9830322,0.03537289053,356.9830322,0.0354530476,
356.0081787,0.03552563116,356.0081787,0.03551234305,356.0081787,0.03544658795,
354.9942322,0.03582407534,354.9942322,0.03590580449,354.9942322,0.03580746427,
354.019165,0.035803698,354.019165,0.03576237708,354.019165,0.03559912741,
353.0048828,0.03608401865,353.0048828,0.03608359769,353.0048828,0.03597188741,
351.9904785,0.03618290275,351.9904785,0.03601547703,351.9904785,0.03607873246,
351.0149536,0.03627640754,351.0149536,0.03635425121,351.0149536,0.03621610254,
350.0003052,0.03633834794,350.0003052,0.03640745208,350.0003052,0.03635763004,
348.9855042,0.03642617166,348.9855042,0.03660609201,348.9855042,0.03658220917,
348.0095825,0.03682060167,348.0095825,0.03657297418,348.0095825,0.03669416532,
346.9945068,0.03663301468,346.9945068,0.03653831035,346.9945068,0.03649990261,
346.0183105,0.03649798781,346.0183105,0.03647687286,346.0183105,0.03646434471,
345.0029297,0.03653281927,345.0029297,0.03644272313,345.0029297,0.03644525632,
343.9874573,0.0366563648,343.9874573,0.03663127124,343.9874573,0.03666168824,
343.0108643,0.03673619404,343.0108643,0.03671698272,343.0108643,0.03670123592,
341.9950562,0.03666174412,341.9950562,0.036739517,341.9950562,0.03681578487,
341.018219,0.0367975831,341.018219,0.03669768572,341.018219,0.03673737496,
340.0021667,0.03676715493,340.0021667,0.03677780554,340.0021667,0.03668050468,
338.9859619,0.03668275476,338.9859619,0.03670376912,338.9859619,0.03675253317,
338.008728,0.03673163056,338.008728,0.03684336692,338.008728,0.03676053509,
336.9922485,0.03683979064,336.9922485,0.03694730252,336.9922485,0.03671323508,
336.01474,0.03678707406,336.01474,0.036625579,336.01474,0.03660493717,
334.9980469,0.03677870706,334.9980469,0.03672393784,334.9980469,0.03656829894,
333.9811401,0.03651274368,333.9811401,0.03658978641,333.9811401,0.03646417707,
333.0032654,0.0368937552,333.0032654,0.03678228334,333.0032654,0.03646870703,
331.986145,0.03676360473,331.986145,0.0366147384,331.986145,0.03668512404,
331.0080261,0.03670039028,331.0080261,0.03665357456,331.0080261,0.03669120744,
329.9906006,0.03670531884,329.9906006,0.0366775468,329.9906006,0.03672188148,
329.012207,0.03679873794,329.012207,0.03675208241,329.012207,0.03669379652,
327.9945374,0.03669543192,327.9945374,0.03673794121,327.9945374,0.03677061945,
327.0158997,0.03651384264,327.0158997,0.03657359257,327.0158997,0.03653659299,
325.9979858,0.03681245819,325.9979858,0.03684336692,325.9979858,0.03690060228,
325.0190735,0.03655007854,325.0190735,0.03653625399,325.0190735,0.03653540835,
324.000885,0.0367430672,324.000885,0.03676661849,324.000885,0.03674830869,
322.9825745,0.03715366125,322.9825745,0.03714015335,322.9825745,0.03721228987,
322.0032959,0.03737467527,322.0032959,0.03732688725,322.0032959,0.0372736305,
320.9847107,0.03761677817,320.9847107,0.03751257062,320.9847107,0.0375046134,
320.005188,0.03758033738,320.005188,0.03758626431,320.005188,0.03752787039,
318.9863892,0.03805546463,318.9863892,0.03800319508,318.9863892,0.03814759105,
318.0066223,0.03838922083,318.0066223,0.03822919354,318.0066223,0.03841967508,
316.9875488,0.03875393793,316.9875488,0.03878119215,316.9875488,0.0386986956,
316.0075073,0.03887047246,316.0075073,0.03875082359,316.0075073,0.03867936879,
314.9881897,0.03921842575,314.9881897,0.03907380998,314.9881897,0.03904444352,
314.0079651,0.03991366178,314.0079651,0.03985906765,314.0079651,0.03987140954,
312.9883728,0.04025100544,312.9883728,0.04017453268,312.9883728,0.04019119963,
312.0078735,0.04073168337,312.0078735,0.04066541418,312.0078735,0.040613994,
310.9880371,0.04106274992,310.9880371,0.04094878212,310.9880371,0.04098547623,
310.0073242,0.04141175002,310.0073242,0.0416671969,310.0073242,0.04130811244,
308.9872437,0.04151490331,308.9872437,0.04156751186,308.9872437,0.04144834355,
308.0062561,0.04226826504,308.0062561,0.04220230505,308.0062561,0.04220153391,
306.9859314,0.04256666824,306.9859314,0.04255196452,306.9859314,0.04253857583,
306.0047302,0.04275535047,306.0047302,0.04279045761,306.0047302,0.04269131646,
304.9841614,0.04349112511,304.9841614,0.04342552274,304.9841614,0.04333378747,
304.0027466,0.0439212136,304.0027466,0.04397867247,304.0027466,0.04388006032,
302.9819031,0.04412681609,302.9819031,0.04408426955,302.9819031,0.04411985353,
302.0002441,0.04451290518,302.0002441,0.04456886277,302.0002441,0.04445638135,
301.0184326,0.04497713596,301.0184326,0.04495907947,301.0184326,0.04491337761,
299.9972839,0.04544643685,299.9972839,0.04557630792,299.9972839,0.0455057919,

blank,
blank
Collection Time: 2/26/2025 1:33:31 PM
Operator Name  :
Scan Version 5.1.3.1042
Parameter List :
Instrument  Cary 60
Instrument Version  2.00
Start (nm)  800.0
Stop (nm)  300.0
X Mode  Nanometers
Y Mode  Abs
UV-Vis Scan Rate (nm/min)  600.00
UV-Vis Data Interval (nm)  1.00
UV-Vis Ave. Time (sec)  0.1000
Beam Mode  Dual Beam
Baseline Correction  Off
Cycle Mode  Off
Method Log     :
Method Name    :
Date/Time stamp: 2/26/2025 1:30:17 PM
Method Modifications:
UVVIS SAT Changed: 2/26/2025 1:32:06 PM, Old:0.0125, New:0.1000
Common SAT Changed: 2/26/2025 1:32:06 PM, Old:0.0125, New:0.1000
X Stop nm Changed: 2/26/2025 1:32:10 PM, Old:  200.0, New:  300.0
Common Interval nm Changed: 2/26/2025 1:32:10 PM, Old:     5.00, New:     1.00
End Method Modifications
<Current Wavelength> , 301.0

blank2,
blank2
Collection Time: 2/26/2025 1:36:21 PM
Operator Name  :
Scan Version 5.1.3.1042
Parameter List :
Instrument  Cary 60
Instrument Version  2.00
Start (nm)  800.0
Stop (nm)  300.0
X Mode  Nanometers
Y Mode  Abs
UV-Vis Scan Rate (nm/min)  600.00
UV-Vis Data Interval (nm)  1.00
UV-Vis Ave. Time (sec)  0.1000
Beam Mode  Dual Beam
Baseline Correction  Off
Cycle Mode  Off
Method Log     :
Method Name    :
Date/Time stamp: 2/26/2025 1:30:17 PM
Method Modifications:
UVVIS SAT Changed: 2/26/2025 1:32:06 PM, Old:0.0125, New:0.1000
Common SAT Changed: 2/26/2025 1:32:06 PM, Old:0.0125, New:0.1000
X Stop nm Changed: 2/26/2025 1:32:10 PM, Old:  200.0, New:  300.0
Common Interval nm Changed: 2/26/2025 1:32:10 PM, Old:     5.00, New:     1.00
End Method Modifications
<Current Wavelength> , 304.0

blank3,
blank3
Collection Time: 2/26/2025 1:38:04 PM
Operator Name  :
Scan Version 5.1.3.1042
Parameter List :
Instrument  Cary 60
Instrument Version  2.00
Start (nm)  800.0
Stop (nm)  300.0
X Mode  Nanometers
Y Mode  Abs
UV-Vis Scan Rate (nm/min)  600.00
UV-Vis Data Interval (nm)  1.00
UV-Vis Ave. Time (sec)  0.1000
Beam Mode  Dual Beam
Baseline Correction  Off
Cycle Mode  Off
Method Log     :
Method Name    :
Date/Time stamp: 2/26/2025 1:30:17 PM
Method Modifications:
UVVIS SAT Changed: 2/26/2025 1:32:06 PM, Old:0.0125, New:0.1000
Common SAT Changed: 2/26/2025 1:32:06 PM, Old:0.0125, New:0.1000
X Stop nm Changed: 2/26/2025 1:32:10 PM, Old:  200.0, New:  300.0
Common Interval nm Changed: 2/26/2025 1:32:10 PM, Old:     5.00, New:     1.00
End Method Modifications
<Current Wavelength> , 304.0

