trial1,,trial2,,trial3,,
Wavelength (nm),Abs,Wavelength (nm),Abs,Wavelength (nm),Abs,
799.9968262,0.006989395246,799.9968262,0.006508604623,799.9968262,0.0064496696,
798.9871826,0.007447149139,798.9871826,0.007179628592,798.9871826,0.007058374584,
798.0119019,0.00719418237,798.0119019,0.007241110783,798.0119019,0.007337588351,
797.0014038,0.006838662084,797.0014038,0.006289852317,797.0014038,0.006435824092,
795.9905396,0.006680436432,795.9905396,0.006361820735,795.9905396,0.006355963182,
795.0140991,0.006560478359,795.0140991,0.006591568701,795.0140991,0.007390377577,
794.0025024,0.006482591387,794.0025024,0.006851837039,794.0025024,0.0065581128,
792.9903564,0.006007269491,792.9903564,0.005909669679,792.9903564,0.006035747938,
792.0128784,0.006625000387,792.0128784,0.006200486794,792.0128784,0.006169266999,
790.999939,0.006655648351,790.999939,0.006017820444,790.999939,0.006643530913,
789.9866333,0.005877053831,789.9866333,0.006408501416,789.9866333,0.005654134788,
789.0079956,0.006411102135,789.0079956,0.006595931482,789.0079956,0.00706779398,
787.9938965,0.006289353594,787.9938965,0.006402143743,787.9938965,0.006187462714,
787.0144653,0.006003201008,787.0144653,0.00622950308,787.0144653,0.005743624177,
785.9996338,0.00590423774,785.9996338,0.005777200684,785.9996338,0.005761960056,
784.984375,0.005863934755,784.984375,0.006061288062,784.984375,0.006159709767,
784.0037842,0.005956091452,784.0037842,0.006273910869,784.0037842,0.006539323367,
782.9877319,0.005840557162,782.9877319,0.00526908366,782.9877319,0.005690143444,
782.0064087,0.005735781509,782.0064087,0.00586532522,782.0064087,0.006131406873,
780.989563,0.005439115223,780.989563,0.005882380065,780.989563,0.00536260847,
780.0075684,0.005711178295,780.0075684,0.005449705292,780.0075684,0.005756582599,
778.9899292,0.005522713996,778.9899292,0.005565187894,778.9899292,0.005836910568,
778.0071411,0.006202692166,778.0071411,0.005832581315,778.0071411,0.005785700399,
776.9887695,0.005979028996,776.9887695,0.005342612509,776.9887695,0.005186188966,
776.005188,0.005584669765,776.005188,0.005619545002,776.005188,0.005559367593,
774.9860229,0.005327099003,774.9860229,0.005422392394,774.9860229,0.005327989813,
774.001709,0.00557756424,774.001709,0.005537133664,774.001709,0.005344473291,
773.0169678,0.00613114424,773.0169678,0.005840373691,773.0169678,0.005559524521,
771.9967041,0.005296518095,771.9967041,0.005332261324,771.9967041,0.005469522439,
771.0112305,0.006073887926,771.0112305,0.005772242788,771.0112305,0.00564374961,
769.9902344,0.006326308008,769.9902344,0.005781240761,769.9902344,0.005907412618,
769.0039673,0.006082183216,769.0039673,0.00571899442,769.0039673,0.005867083091,
768.0174561,0.006686613895,768.0174561,0.006385199726,768.0174561,0.006662666798,
766.9953003,0.006301829126,766.9953003,0.006712481845,766.9953003,0.00681865029,
766.0079346,0.006958039477,766.0079346,0.007313710637,766.0079346,0.007133128121,
764.9850464,0.007422659546,764.9850464,0.007569012232,764.9850464,0.007242663763,
763.9970093,0.00745710358,763.9970093,0.00699468283,763.9970093,0.007166312076,
763.008667,0.007710381411,763.008667,0.007350646891,763.008667,0.007315368857,
761.9845581,0.007168812212,761.9845581,0.006971270777,761.9845581,0.007326215506,
760.9954224,0.008228038438,760.9954224,0.007830578834,760.9954224,0.007400935981,
760.0059814,0.007587951608,760.0059814,0.007237741724,760.0059814,0.007308708504,
759.0161133,0.007307997905,759.0161133,0.006265821867,759.0161133,0.006597455591,
757.9904785,0.006728308275,757.9904785,0.006754756905,757.9904785,0.006286884658,
757,0.006175620947,757,0.006082761101,757,0.005781450775,
756.0089722,0.005714693107,756.0089722,0.005413690116,756.0089722,0.005395631306,
754.9822998,0.005023431499,754.9822998,0.005112843588,754.9822998,0.005113236606,
753.9906616,0.005154674873,753.9906616,0.004807886202,753.9906616,0.004660786595,
752.9986572,0.0046176943,752.9986572,0.004605110269,752.9986572,0.004409071058,
752.0062866,0.004819743335,752.0062866,0.004452508409,752.0062866,0.004084982909,
751.0135498,0.004726335406,751.0135498,0.004432999063,751.0135498,0.004620833788,
749.9849854,0.004293424543,749.9849854,0.0040545417,749.9849854,0.004403972067,
748.9915771,0.004314679652,748.9915771,0.003985959105,748.9915771,0.00405739015,
747.9978027,0.003533872543,747.9978027,0.00346054486,747.9978027,0.003876719857,
747.0036621,0.00349981687,747.0036621,0.003444967559,747.0036621,0.003631931962,
746.0090942,0.003127099248,746.0090942,0.002669940935,746.0090942,0.002952627605,
745.0142822,0.002515986562,745.0142822,0.002340615029,745.0142822,0.002278313506,
743.9835205,0.001602810458,743.9835205,0.001593820867,743.9835205,0.001651580795,
742.987915,0.0009561923216,742.987915,0.0005427536089,742.987915,0.0007279277779,
741.9920654,-0.000283307163,741.9920654,-0.0001707102929,741.9920654,3.652663872E-005,
740.9957886,-0.001047428232,740.9957886,-0.0008954555378,740.9957886,-0.001293818932,
739.9992065,-0.001695684972,739.9992065,-0.001730029355,739.9992065,-0.002006645082,
739.0021973,-0.002549208933,739.0021973,-0.002935003256,739.0021973,-0.002958965721,
738.0048828,-0.003565816442,738.0048828,-0.003302112687,738.0048828,-0.003813092364,
737.0072021,-0.003967382014,737.0072021,-0.004149616696,737.0072021,-0.004211404361,
736.0091553,-0.004733248148,736.0091553,-0.004639829509,736.0091553,-0.004805909935,
735.0108032,-0.005350564606,735.0108032,-0.005455691367,735.0108032,-0.005407375284,
734.012085,-0.005777050741,734.012085,-0.00569770392,734.012085,-0.005769643001,
733.0130615,-0.006442674436,733.0130615,-0.006824771874,733.0130615,-0.006805914454,
732.0136719,-0.00658639567,732.0136719,-0.006857388187,732.0136719,-0.006848775782,
731.013916,-0.007490218151,731.013916,-0.007566948421,731.013916,-0.007760799956,
730.0137939,-0.007676321547,730.0137939,-0.007717011496,730.0137939,-0.007840278558,
729.0133057,-0.008391147479,729.0133057,-0.008429688402,729.0133057,-0.008342344314,
728.0125732,-0.008441976272,728.0125732,-0.008901452646,728.0125732,-0.008789394982,
727.0114746,-0.00873398874,727.0114746,-0.009044566192,727.0114746,-0.009048672393,
726.0100098,-0.009146926925,726.0100098,-0.008948316798,726.0100098,-0.009138258174,
725.0081787,-0.00933607202,725.0081787,-0.00935137365,725.0081787,-0.009500619955,
724.0060425,-0.009239482693,724.0060425,-0.009687129408,724.0060425,-0.009671180509,
723.00354,-0.009267102927,723.00354,-0.009177797474,723.00354,-0.009284840897,
722.0007935,-0.009277593344,722.0007935,-0.009519968182,722.0007935,-0.009650269523,
720.9975586,-0.00916542951,720.9975586,-0.009422861971,720.9975586,-0.009278657846,
719.9940186,-0.008695373312,719.9940186,-0.008908655494,719.9940186,-0.008901503868,
718.9901733,-0.008638280444,718.9901733,-0.009025703184,718.9901733,-0.009140387177,
717.9859009,-0.008081475273,717.9859009,-0.00842552539,717.9859009,-0.008382260799,
717.017334,-0.008105459623,717.017334,-0.008481224068,717.017334,-0.008458376862,
716.0124512,-0.007380645256,716.0124512,-0.007645852398,716.0124512,-0.007726878393,
715.0072632,-0.006922358647,715.0072632,-0.007397594396,715.0072632,-0.007432762999,
714.00177,-0.006486030295,714.00177,-0.006760449614,714.00177,-0.006589659024,
712.9958496,-0.005493727513,712.9958496,-0.005882227793,712.9958496,-0.005840241909,
711.989624,-0.005222086795,711.989624,-0.005266178399,711.989624,-0.005435036495,
710.9831543,-0.004287998658,710.9831543,-0.004625846166,710.9831543,-0.004511551466,
710.012207,-0.003463363973,710.012207,-0.003929828294,710.012207,-0.003932341933,
709.0049438,-0.002622854896,709.0049438,-0.003246978624,709.0049438,-0.0032896786,
707.9973755,-0.001928461948,707.9973755,-0.002333912533,707.9973755,-0.002609423595,
706.989563,-0.00141763268,706.989563,-0.0016956334,706.989563,-0.001732040429,
706.017395,-0.0002314624144,706.017395,-0.0008039983222,706.017395,-0.0008236347931,
705.0088501,0.0003681509115,705.0088501,0.0001984353876,705.0088501,-4.560868183E-005,
704,0.001305811456,704,0.0005340969656,704,0.0007389219827,
702.9907837,0.002345768036,702.9907837,0.001702097827,702.9907837,0.001853450085,
702.017334,0.003000820056,702.017334,0.00244517345,702.017334,0.002224841388,
701.0074463,0.003893540241,701.0074463,0.003436331172,701.0074463,0.00345924031,
699.9973145,0.00477176765,699.9973145,0.004355414305,699.9973145,0.004280771594,
698.9868164,0.005058183335,698.9868164,0.004538847134,698.9868164,0.00478215795,
698.012085,0.006188171916,698.012085,0.005281529855,698.012085,0.005413166247,
697.0009155,0.006923030131,697.0009155,0.006314042024,697.0009155,0.006305269431,
695.9894409,0.007714254782,695.9894409,0.007216922008,695.9894409,0.007046061568,
695.0137939,0.008357140236,695.0137939,0.007722502574,695.0137939,0.007403279655,
694.0016479,0.009072367102,694.0016479,0.008762584068,694.0016479,0.008501802571,
692.9891968,0.009676794522,692.9891968,0.009192889556,692.9891968,0.008934412152,
692.0125732,0.01018413529,692.0125732,0.009607133456,692.0125732,0.009098773822,
690.9995117,0.01094023325,690.9995117,0.01039597671,690.9995117,0.01020194404,
689.986084,0.01170759555,689.986084,0.01135181729,689.986084,0.01092645619,
689.0085449,0.01185574569,689.0085449,0.01151901018,689.0085449,0.01127391681,
687.9944458,0.01255363412,687.9944458,0.01208573114,687.9944458,0.01208187174,
687.0162964,0.01322454307,687.0162964,0.01270527113,687.0162964,0.01234273519,
686.0015869,0.01334683783,686.0015869,0.01304522157,686.0015869,0.01299011428,
684.9865723,0.01365413889,684.9865723,0.01341718156,684.9865723,0.01320909243,
684.0074463,0.01451214496,684.0074463,0.01393840183,684.0074463,0.01361129433,
682.9918823,0.0149881104,682.9918823,0.01468063984,682.9918823,0.01443049032,
682.012146,0.01524426416,682.012146,0.01452825777,682.012146,0.01487775613,
680.9958496,0.01557660382,680.9958496,0.01528389286,680.9958496,0.01508501079,
680.015625,0.01579007134,680.015625,0.01578781754,680.015625,0.01524906326,
678.9985962,0.01631979458,678.9985962,0.01605537534,678.9985962,0.01567205228,
678.0177612,0.01685296185,678.0177612,0.0165342465,678.0177612,0.01603557914,
677.0001221,0.01685753651,677.0001221,0.01679287478,677.0001221,0.01653674804,
675.9822998,0.01722135767,675.9822998,0.01702742837,675.9822998,0.01681243628,
675.0004883,0.01799597032,675.0004883,0.01775614731,675.0004883,0.01744592935,
673.9819946,0.01818747073,673.9819946,0.01780293509,673.9819946,0.01757704653,
672.9995728,0.01851645112,672.9995728,0.01834003441,672.9995728,0.01817869768,
672.0168457,0.0188235417,672.0168457,0.01841705292,672.0168457,0.01790319197,
670.9974365,0.01902452111,670.9974365,0.01879577897,670.9974365,0.01854930073,
670.0140991,0.01949584857,670.0140991,0.01934531331,670.0140991,0.01910861209,
668.9940796,0.01981005259,668.9940796,0.0195463188,668.9940796,0.01905648969,
668.0101318,0.01942256466,668.0101318,0.0192646943,668.0101318,0.01884911396,
666.9894409,0.01909779198,666.9894409,0.01873423345,666.9894409,0.01895188354,
666.0049438,0.01910355315,666.0049438,0.01872093789,666.0049438,0.01870153286,
664.9836426,0.01893511973,664.9836426,0.01884746552,664.9836426,0.01862343773,
663.9985962,0.01867064461,663.9985962,0.01874207146,663.9985962,0.01867231913,
663.0131836,0.01885865815,663.0131836,0.01878085919,663.0131836,0.01826278679,
661.9909058,0.01908067055,661.9909058,0.01877669618,661.9909058,0.01836290583,
661.0050049,0.01924515702,661.0050049,0.01870837063,661.0050049,0.01867977902,
659.9821777,0.0191713199,659.9821777,0.01882778481,659.9821777,0.01850769855,
658.9955444,0.01903087646,658.9955444,0.01872512698,658.9955444,0.01850875281,
658.008728,0.01912716962,658.008728,0.01870580204,658.008728,0.01864637807,
656.9849854,0.01908981241,656.9849854,0.01880083419,656.9849854,0.01854427531,
655.9974976,0.01936886087,655.9974976,0.01911134459,655.9974976,0.0187669117,
655.0097656,0.01969730295,655.0097656,0.01915695332,655.0097656,0.01898825541,
653.9851074,0.01944578998,653.9851074,0.01919921301,653.9851074,0.01903953031,
652.9967651,0.01967533492,652.9967651,0.01956508309,652.9967651,0.0189624019,
652.0081787,0.01969562285,652.0081787,0.01970020123,652.0081787,0.01905032247,
650.982605,0.0197399389,650.982605,0.0195123367,650.982605,0.01929324307,
649.9934082,0.01970250346,649.9934082,0.01950226538,649.9934082,0.019268943,
649.0039673,0.01998847723,649.0039673,0.01957854256,649.0039673,0.01947657205,
648.0141602,0.02016656846,648.0141602,0.0196385812,648.0141602,0.01963105239,
646.9874268,0.02002780885,646.9874268,0.01987567917,646.9874268,0.01932658441,
645.9971313,0.0202524811,645.9971313,0.01963912323,645.9971313,0.01937635802,
645.0064697,0.02017980069,645.0064697,0.0197732877,645.0064697,0.01980249397,
644.015564,0.02041423693,644.015564,0.0197094921,644.015564,0.01992624812,
642.9876099,0.02012933791,642.9876099,0.02007256635,642.9876099,0.01985131949,
641.9960938,0.02033464052,641.9960938,0.01994294301,641.9960938,0.01954753697,
641.0043945,0.02041019499,641.0043945,0.02021264099,641.0043945,0.01983766258,
640.0123291,0.02049949393,640.0123291,0.02016941458,640.0123291,0.01971499063,
638.9831543,0.02061706781,638.9831543,0.02012963779,638.9831543,0.02018945478,
637.9906006,0.02059904486,637.9906006,0.02012448572,637.9906006,0.02046286128,
636.9976196,0.02043439634,636.9976196,0.02038566954,636.9976196,0.02009601705,
636.0044556,0.0208831653,636.0044556,0.02037731372,636.0044556,0.02040829509,
635.0110474,0.02087007463,635.0110474,0.0205694586,635.0110474,0.02053488232,
634.0172729,0.02062320337,634.0172729,0.02030740678,634.0172729,0.02019566484,
632.9864502,0.02069441043,632.9864502,0.02028098702,632.9864502,0.02030496486,
631.9921265,0.02063726448,631.9921265,0.02030664682,631.9921265,0.02050462365,
630.9975586,0.02077613771,630.9975586,0.02054628171,630.9975586,0.02047973871,
630.0026245,0.02063387074,630.0026245,0.02035487816,630.0026245,0.02027149312,
629.0075073,0.02093855105,629.0075073,0.0205337964,629.0075073,0.02063636854,
628.012085,0.0209941864,628.012085,0.02053442039,628.012085,0.02060830034,
627.0163574,0.02070719749,627.0163574,0.0205158852,627.0163574,0.0203909874,
625.9835205,0.02086390927,625.9835205,0.02049650997,625.9835205,0.02038243972,
624.9873047,0.0210675206,624.9873047,0.02065721713,624.9873047,0.02049572207,
623.9907227,0.02099407837,623.9907227,0.02084804699,623.9907227,0.02075004205,
622.9939575,0.02086654305,622.9939575,0.02093746327,622.9939575,0.02059391513,
621.9968872,0.02084535919,621.9968872,0.02097250707,621.9968872,0.02061356604,
620.9995117,0.0209224429,620.9995117,0.02079161443,620.9995117,0.02090875246,
620.0018921,0.02156996168,620.0018921,0.02105944976,620.0018921,0.02082716301,
619.0040283,0.02132932656,619.0040283,0.02100195736,619.0040283,0.02105993964,
618.0058594,0.02132976055,618.0058594,0.02122873813,618.0058594,0.02102942578,
617.0073853,0.02125695534,617.0073853,0.02120427415,617.0073853,0.02121210285,
616.008728,0.02166583948,616.008728,0.02119709924,616.008728,0.02106561884,
615.0097656,0.02141269483,615.0097656,0.02182123624,615.0097656,0.02163163759,
614.010498,0.02184742317,614.010498,0.02173101157,614.010498,0.02159335651,
613.0109863,0.02203567326,613.0109863,0.02183163539,613.0109863,0.02169348486,
612.0112305,0.02197603695,612.0112305,0.02229994349,612.0112305,0.02191697992,
611.0111084,0.02242599241,611.0111084,0.02245428599,611.0111084,0.02234856039,
610.0108032,0.02236973681,610.0108032,0.02247854881,610.0108032,0.02234068327,
609.0101929,0.02262460999,609.0101929,0.02258351631,609.0101929,0.02252917551,
608.0093384,0.02271537483,608.0093384,0.02297580242,608.0093384,0.02286279947,
607.0082397,0.02345081232,607.0082397,0.02363532968,607.0082397,0.02334639989,
606.0068359,0.02389141358,606.0068359,0.0237816181,606.0068359,0.02367414534,
605.005188,0.02425299399,605.005188,0.02415760979,605.005188,0.02406487428,
604.0032959,0.0245653186,604.0032959,0.02443325333,604.0032959,0.02449519932,
603.0010986,0.02479279041,603.0010986,0.02500562742,603.0010986,0.02505506948,
601.9985962,0.0256697312,601.9985962,0.02578041703,601.9985962,0.02569713816,
600.9959106,0.02673244104,600.9959106,0.02673070692,600.9959106,0.02651553601,
599.9929199,0.02746459655,599.9929199,0.02753241174,599.9929199,0.02735516243,
598.989624,0.0285461992,598.989624,0.0284868218,598.989624,0.02841725573,
597.9862061,0.02959031798,597.9862061,0.02974985354,597.9862061,0.02976235561,
596.9824219,0.03079540096,596.9824219,0.03086437657,596.9824219,0.03061876073,
596.015625,0.03220658004,596.015625,0.03229808807,596.015625,0.03217820078,
595.0112305,0.03387108073,595.0112305,0.03389744088,595.0112305,0.03389209509,
594.0067139,0.03545279428,594.0067139,0.03566572443,594.0067139,0.03553394601,
593.0019531,0.03778917342,593.0019531,0.03792705759,593.0019531,0.03780684993,
591.9969482,0.04043362662,591.9969482,0.04066896811,591.9969482,0.0403639935,
590.9915771,0.04336891323,590.9915771,0.04365934432,590.9915771,0.04324158281,
589.9859619,0.04652808979,589.9859619,0.04674144834,589.9859619,0.04661214724,
589.017395,0.04957692698,589.017395,0.04978299141,589.017395,0.04978220537,
588.0112915,0.05347839743,588.0112915,0.05361119285,588.0112915,0.05320414901,
587.0048828,0.05770531297,587.0048828,0.05783423409,587.0048828,0.05777417496,
585.9983521,0.06245933473,585.9983521,0.06256390363,585.9983521,0.06276395917,
584.9914551,0.06832098961,584.9914551,0.06830508262,584.9914551,0.06804544479,
583.984375,0.07418114692,583.984375,0.07434304059,583.984375,0.07440878451,
583.0143433,0.08037712425,583.0143433,0.08043945581,583.0143433,0.08025842905,
582.0066528,0.08662194759,582.0066528,0.08660921454,582.0066528,0.08659809083,
580.9987793,0.09362205863,580.9987793,0.09397567064,580.9987793,0.09381330013,
579.9907227,0.1015273482,579.9907227,0.101488173,579.9907227,0.1014658064,
578.9822388,0.1101236567,578.9822388,0.1101786643,578.9822388,0.1103289202,
578.0109863,0.1191271544,578.0109863,0.1193224415,578.0109863,0.1190273762,
577.0021362,0.1276711076,577.0021362,0.1279588193,577.0021362,0.1277484298,
575.992981,0.1367888451,575.992981,0.1372413784,575.992981,0.1368603259,
574.9835815,0.1459533125,574.9835815,0.1460975111,574.9835815,0.1463059336,
574.0114136,0.1559887677,574.0114136,0.1563758999,574.0114136,0.1559667736,
573.0014648,0.1665617377,573.0014648,0.1664825082,573.0014648,0.166593805,
571.991333,0.1764701903,571.991333,0.176717937,571.991333,0.1764619052,
571.0183105,0.1863627732,571.0183105,0.1864584386,571.0183105,0.1862984896,
570.0077515,0.1964478791,570.0077515,0.196557954,570.0077515,0.1966353059,
568.9967651,0.2061856985,568.9967651,0.2060839236,568.9967651,0.2061298937,
567.9857178,0.2156560421,567.9857178,0.2158412635,567.9857178,0.2155542821,
567.0117798,0.2247370929,567.0117798,0.2248704433,567.0117798,0.2246287018,
566.0001831,0.2337791324,566.0001831,0.2339366227,566.0001831,0.233906731,
564.9882813,0.2421861738,564.9882813,0.2424344569,564.9882813,0.2423432171,
564.0136719,0.249892056,564.0136719,0.2500539124,564.0136719,0.2499324232,
563.0013428,0.2570814788,563.0013428,0.2572705448,563.0013428,0.2568619847,
561.9887695,0.2638422847,561.9887695,0.2639911771,561.9887695,0.2638858855,
561.0134277,0.2701920867,561.0134277,0.2703796327,561.0134277,0.2703886032,
560.0003052,0.2763685584,560.0003052,0.2768119574,560.0003052,0.2764893472,
558.9869385,0.2820148468,558.9869385,0.281961143,558.9869385,0.2820517719,
558.0109253,0.2863789797,558.0109253,0.286377877,558.0109253,0.2862054706,
556.9971313,0.2904998958,556.9971313,0.2904750109,556.9971313,0.2904954255,
555.9830933,0.2944086194,555.9830933,0.2946674526,555.9830933,0.2944909334,
555.0063477,0.2979469299,555.0063477,0.2978413999,555.0063477,0.2977381051,
553.9918213,0.3011047542,553.9918213,0.3009980619,553.9918213,0.3007364571,
553.0146484,0.3032399118,553.0146484,0.3031621277,553.0146484,0.3030209839,
551.9995728,0.3054372668,551.9995728,0.3052279949,551.9995728,0.3051560521,
550.984375,0.3074235916,550.984375,0.3073798716,550.984375,0.3071190417,
550.0064697,0.3090222478,550.0064697,0.3091236055,550.0064697,0.3089205921,
548.9907837,0.3107120991,548.9907837,0.3108024597,548.9907837,0.3105127513,
548.0124512,0.3120570183,548.0124512,0.3118736744,548.0124512,0.3117750585,
546.9962158,0.312908262,546.9962158,0.3127975762,546.9962158,0.3125989437,
546.017395,0.3136818111,546.017395,0.3136901855,546.017395,0.3134362698,
545.0007324,0.3145394921,545.0007324,0.3145481348,545.0007324,0.3142229021,
543.9838867,0.3152210712,543.9838867,0.315238595,543.9838867,0.3149980903,
543.0043945,0.3159839511,543.0043945,0.3159928918,543.0043945,0.3157553077,
541.9870605,0.3164216578,541.9870605,0.3163959384,541.9870605,0.3163478076,
541.0071411,0.3164086342,541.0071411,0.3164708316,541.0071411,0.3162536025,
539.9892578,0.3171456754,539.9892578,0.31730932,539.9892578,0.3170958161,
539.0089111,0.3179031909,539.0089111,0.3178834915,539.0089111,0.3178045452,
537.9905396,0.3185311258,537.9905396,0.3185508847,537.9905396,0.3183833063,
537.0097656,0.3187976778,537.0097656,0.3188316226,537.0097656,0.3186684251,
535.9909058,0.3194704652,535.9909058,0.3194594979,535.9909058,0.3192105293,
535.0097046,0.3202153146,535.0097046,0.3201031387,535.0097046,0.3199143708,
533.9904785,0.3203759491,533.9904785,0.3204131424,533.9904785,0.3202166259,
533.008728,0.320559144,533.008728,0.3207261562,533.008728,0.3205862045,
531.9890747,0.3216585517,531.9890747,0.321518749,531.9890747,0.321384728,
531.006958,0.322468549,531.006958,0.322507143,531.006958,0.3222248256,
529.9867554,0.3233754337,529.9867554,0.3233810067,529.9867554,0.3231284618,
529.0042114,0.323497206,529.0042114,0.3233678043,529.0042114,0.3232169151,
527.9835205,0.3239137828,527.9835205,0.3236938715,527.9835205,0.3235598505,
527.0005493,0.3249713182,527.0005493,0.3248304129,527.0005493,0.3247818649,
526.017334,0.3257074654,526.017334,0.3255372643,526.017334,0.3253933191,
524.9959717,0.326303035,524.9959717,0.3261258304,524.9959717,0.3261233568,
524.0123291,0.3273510337,524.0123291,0.3270919323,524.0123291,0.3271337748,
522.9906006,0.3283840418,522.9906006,0.3283449709,522.9906006,0.3280917108,
522.0065308,0.3295273781,522.0065308,0.3293529749,522.0065308,0.3290855587,
520.984314,0.3309249282,520.984314,0.3308110237,520.984314,0.3305690289,
519.9998169,0.3319685161,519.9998169,0.332057029,519.9998169,0.3317959011,
519.0150146,0.3331530392,519.0150146,0.3331588209,519.0150146,0.332977742,
517.9921265,0.3345416784,517.9921265,0.3345594108,517.9921265,0.3343622983,
517.006958,0.3362393379,517.006958,0.3359830678,517.006958,0.3359358609,
515.9836426,0.3380821049,515.9836426,0.3379307091,515.9836426,0.337708056,
514.9980469,0.3398124874,514.9980469,0.3397568166,514.9980469,0.3396591842,
514.0122681,0.3420946002,514.0122681,0.3418320715,514.0122681,0.341637373,
512.9882813,0.3442444503,512.9882813,0.344222039,512.9882813,0.3440428376,
512.0020752,0.3466812074,512.0020752,0.3466091752,512.0020752,0.3465284407,
511.015625,0.3492575586,511.015625,0.3491532505,511.015625,0.3492075503,
509.9909363,0.3522295058,509.9909363,0.352037251,509.9909363,0.352042973,
509.0040894,0.3553842604,509.0040894,0.3551035523,509.0040894,0.3549380302,
508.0169983,0.3586961329,508.0169983,0.358623296,508.0169983,0.358610481,
506.9917297,0.3621999025,506.9917297,0.3622326553,506.9917297,0.3620786667,
506.0042419,0.3653982282,506.0042419,0.3653561175,506.0042419,0.365309149,
505.0164795,0.3680043221,505.0164795,0.3676572144,505.0164795,0.3679546416,
503.9906006,0.3708198071,503.9906006,0.3707481325,503.9906006,0.3709890544,
503.0025024,0.3736222386,503.0025024,0.3737118244,503.0025024,0.3735761642,
502.0140991,0.3765778244,502.0140991,0.376501143,502.0140991,0.3763304353,
500.9876099,0.3785813451,500.9876099,0.3787674308,500.9876099,0.3784570992,
499.9988708,0.3807661235,499.9988708,0.3807108402,499.9988708,0.3805900812,
499.0098267,0.3831555843,499.0098267,0.3830343783,499.0098267,0.3829260767,
497.982666,0.3854142129,497.982666,0.3854767084,497.982666,0.385198772,
496.9932556,0.3874092996,496.9932556,0.3873580694,496.9932556,0.3872328401,
496.0036621,0.3899314106,496.0036621,0.3900774717,496.0036621,0.390041858,
495.013916,0.3924486041,495.013916,0.3923946619,495.013916,0.3923105896,
493.9858704,0.3950946927,493.9858704,0.3951432407,493.9858704,0.3949076533,
492.9956665,0.3977940679,492.9956665,0.3977972567,492.9956665,0.3978149891,
492.0053406,0.3997754455,492.0053406,0.3998737633,492.0053406,0.3995179832,
491.0147095,0.4031430483,491.0147095,0.4032244384,491.0147095,0.403144002,
489.9858398,0.406542182,489.9858398,0.4065958858,489.9858398,0.4066876173,
488.9948425,0.4096867144,488.9948425,0.4098234177,488.9948425,0.4097709656,
488.0036316,0.41206339,488.0036316,0.4122112989,488.0036316,0.4120875895,
487.0122681,0.4157799184,487.0122681,0.4159482419,487.0122681,0.415820092,
485.9824829,0.420383513,485.9824829,0.4205916524,485.9824829,0.4205526114,
484.9906921,0.4240464568,484.9906921,0.4241281152,484.9906921,0.424159646,
483.9986877,0.4264340401,483.9986877,0.4267527461,483.9986877,0.4268415272,
483.0065613,0.430918932,483.0065613,0.430857569,483.0065613,0.4310382009,
482.0141296,0.4354373813,482.0141296,0.4354388416,482.0141296,0.4355519712,
480.983429,0.4401227832,480.983429,0.4402762055,480.983429,0.4401991069,
479.9906616,0.4447543621,479.9906616,0.4448338449,479.9906616,0.4450424612,
478.9976501,0.4491880536,478.9976501,0.4493846297,478.9976501,0.4493863881,
478.0044861,0.4535647631,478.0044861,0.4536216259,478.0044861,0.4536738992,
477.0111389,0.4577867389,477.0111389,0.4580939412,477.0111389,0.4581013918,
476.0175476,0.4623674452,476.0175476,0.4629489779,476.0175476,0.4625629187,
474.9855652,0.4672496915,474.9855652,0.4674242437,474.9855652,0.4676457345,
473.9916382,0.4719525874,473.9916382,0.4722219408,473.9916382,0.4722001255,
472.997467,0.4761120379,472.997467,0.4764394462,472.997467,0.4764144719,
472.0031433,0.4806548655,472.0031433,0.4805452526,472.0031433,0.4804340005,
471.0086365,0.4847292304,471.0086365,0.4849712849,471.0086365,0.4849074781,
470.0138245,0.4891174734,470.0138245,0.4891832173,470.0138245,0.488896668,
469.0189514,0.493952632,469.0189514,0.4942112267,469.0189514,0.4943106174,
467.9855957,0.4986950457,467.9855957,0.4986887574,467.9855957,0.4989904761,
466.9902344,0.5035282373,466.9902344,0.5034000278,466.9902344,0.503660202,
465.994751,0.5082198977,465.994751,0.5085228086,465.994751,0.5085827112,
464.9990845,0.513622582,464.9990845,0.5136945248,464.9990845,0.5138843656,
464.0032043,0.5204147696,464.0032043,0.5205194354,464.0032043,0.5204951167,
463.0071411,0.5281344056,463.0071411,0.5283097625,463.0071411,0.5280252695,
462.0108643,0.5362516642,462.0108643,0.5364404321,462.0108643,0.5368771553,
461.0144653,0.5451546311,461.0144653,0.5453330278,461.0144653,0.5453256369,
460.0178223,0.5541667342,460.0178223,0.5545248985,460.0178223,0.5547616482,
458.9826965,0.5676551461,458.9826965,0.5675516129,458.9826965,0.5677075386,
457.9856873,0.5793582201,457.9856873,0.5794019103,457.9856873,0.5794478655,
456.9884644,0.58795017,456.9884644,0.587987721,456.9884644,0.5880939364,
455.9910889,0.5936155319,455.9910889,0.5936888456,455.9910889,0.5937225819,
454.9935303,0.5980499387,454.9935303,0.5978630185,454.9935303,0.5977948904,
453.9957581,0.6003808975,453.9957581,0.6005254984,453.9957581,0.6004149318,
452.9978333,0.6016379595,452.9978333,0.601516664,452.9978333,0.601698041,
451.9997253,0.6024289727,451.9997253,0.6022649407,451.9997253,0.602273941,
451.0014343,0.6029878259,451.0014343,0.6028625965,451.0014343,0.6026678681,
450.0029297,0.6033349037,450.0029297,0.6034192443,450.0029297,0.6032910943,
449.0042419,0.6040052176,449.0042419,0.6039273143,449.0042419,0.6041284204,
448.0054016,0.6052113175,448.0054016,0.605093956,448.0054016,0.6050803065,
447.0063477,0.6067939997,447.0063477,0.6066529751,447.0063477,0.6065707207,
446.0071716,0.6087764502,446.0071716,0.6085001826,446.0071716,0.6086912155,
445.0077515,0.6113250256,445.0077515,0.6109725237,445.0077515,0.611125946,
444.0081482,0.6142570376,444.0081482,0.6139128208,444.0081482,0.6140124202,
443.0083923,0.6180078983,443.0083923,0.6177871227,443.0083923,0.6177006364,
442.0084839,0.6217631698,442.0084839,0.6215740442,442.0084839,0.6216175556,
441.0083923,0.6259590983,441.0083923,0.6256434321,441.0083923,0.6256030202,
440.0080566,0.6304078698,440.0080566,0.6299366355,440.0080566,0.6304131746,
439.0075684,0.6354131103,439.0075684,0.6352897882,439.0075684,0.6353595853,
438.0069275,0.6410338879,438.0069275,0.6410342455,438.0069275,0.6411125064,
437.006073,0.64714396,437.006073,0.6469171643,437.006073,0.6469528675,
436.0050659,0.6530290842,436.0050659,0.6526365876,436.0050659,0.6528348327,
435.0038757,0.6585571766,435.0038757,0.6584516764,435.0038757,0.6585996747,
434.002533,0.6642797589,434.002533,0.6639693379,434.002533,0.6642043591,
433.0009766,0.6702067852,433.0009766,0.6699079275,433.0009766,0.6697729826,
431.9992371,0.6753965616,431.9992371,0.6752234101,431.9992371,0.6749498248,
430.997406,0.6797466278,430.997406,0.6799739003,430.997406,0.6797341108,
429.9952698,0.683789134,429.9952698,0.6835820675,429.9952698,0.683752358,
428.993042,0.6873128414,428.993042,0.686876893,428.993042,0.6870872974,
427.9906006,0.6903704405,427.9906006,0.6902837753,427.9906006,0.6899795532,
426.9880371,0.6934384704,426.9880371,0.6930120587,426.9880371,0.693285048,
425.9852295,0.6962073445,425.9852295,0.6959188581,425.9852295,0.6958737969,
424.9823303,0.6985570788,424.9823303,0.6983745098,424.9823303,0.6984434128,
424.0177917,0.7010365725,424.0177917,0.7007653713,424.0177917,0.700845778,
423.0144958,0.7039406896,423.0144958,0.7036193609,423.0144958,0.7037784457,
422.0111084,0.7065019608,422.0111084,0.7064208388,422.0111084,0.7065161467,
421.0074158,0.7094768286,421.0074158,0.7094220519,421.0074158,0.7093835473,
420.0036316,0.7125685811,420.0036316,0.7122579813,420.0036316,0.7124716043,
418.9996948,0.7159022689,418.9996948,0.7154362798,418.9996948,0.7156046033,
417.9955139,0.7190362215,417.9955139,0.7188708186,417.9955139,0.7191256285,
416.9912109,0.722663343,416.9912109,0.7223907113,416.9912109,0.7222874165,
415.9867554,0.7260634303,415.9867554,0.7259286642,415.9867554,0.7256487608,
414.9821472,0.7299692035,414.9821472,0.7298078537,414.9821472,0.7296542525,
414.0159607,0.7337691188,414.0159607,0.7337933183,414.0159607,0.7336548567,
413.0109253,0.737760365,413.0109253,0.7373505831,413.0109253,0.737291038,
412.0058289,0.7419525385,412.0058289,0.7415485382,412.0058289,0.7415776253,
411.0004883,0.7457242012,411.0004883,0.7454829812,411.0004883,0.7455970645,
409.9949951,0.7507014871,409.9949951,0.7503876686,409.9949951,0.7503336668,
408.9893799,0.7551030517,408.9893799,0.7546232939,408.9893799,0.7550319433,
407.983551,0.7600438595,407.983551,0.75963974,407.983551,0.7593955994,
407.0162659,0.764379859,407.0162659,0.7642605901,407.0162659,0.7638114095,
406.0101624,0.7693817019,406.0101624,0.7692211866,406.0101624,0.7691656947,
405.0038452,0.7743681073,405.0038452,0.7743142843,405.0038452,0.7745904922,
403.997406,0.7801155448,403.997406,0.7799598575,403.997406,0.7798040509,
402.9907227,0.7858250737,402.9907227,0.7853325009,402.9907227,0.7854267359,
401.9839478,0.7904067636,401.9839478,0.790984273,401.9839478,0.7909258008,
401.0157471,0.7968113422,401.0157471,0.7967908978,401.0157471,0.7966607213,
400.008606,0.8029820919,400.008606,0.8027691841,400.008606,0.8031757474,
399.0013428,0.8086540699,399.0013428,0.8087059855,399.0013428,0.8091228008,
397.9938965,0.8150098324,397.9938965,0.8152314425,397.9938965,0.8149135709,
396.9862671,0.8217509985,396.9862671,0.8212733865,396.9862671,0.8213649392,
396.0172729,0.8275812268,396.0172729,0.8273624778,396.0172729,0.8274159431,
395.0093689,0.8338191509,395.0093689,0.8337410092,395.0093689,0.8334766626,
394.0012817,0.8411743641,394.0012817,0.8411850929,394.0012817,0.8410131931,
392.993042,0.8474636078,392.993042,0.8465688229,392.993042,0.8468288779,
391.9846497,0.8525397778,391.9846497,0.8528965712,391.9846497,0.8524734974,
391.0148926,0.8590493798,391.0148926,0.8590291142,391.0148926,0.8590057492,
390.0061951,0.8660067916,390.0061951,0.8658875823,390.0061951,0.8659406304,
388.9972839,0.8734950423,388.9972839,0.8729773164,388.9972839,0.8729292154,
387.9882202,0.8787214756,387.9882202,0.8788084388,387.9882202,0.8783599734,
387.0178833,0.8844190836,387.0178833,0.8846440911,387.0178833,0.8845835924,
386.0085754,0.8912037611,386.0085754,0.8914906383,386.0085754,0.8916326165,
384.999054,0.8984557986,384.999054,0.8987122774,384.999054,0.8985660076,
383.9894104,0.9043272734,383.9894104,0.9043332338,383.9894104,0.9044080973,
383.0184631,0.910934031,383.0184631,0.9117273092,383.0184631,0.9110465646,
382.0084839,0.9176296592,382.0084839,0.9172500968,382.0084839,0.9177991152,
380.9983521,0.9248784781,380.9983521,0.9244849682,380.9983521,0.9245908856,
379.9880676,0.9322193861,379.9880676,0.9325705767,379.9880676,0.9322555065,
379.0165405,0.9401994944,379.0165405,0.9404437542,379.0165405,0.9403002262,
378.0059509,0.9461629987,378.0059509,0.9464181066,378.0059509,0.9461442828,
376.9952393,0.9534750581,376.9952393,0.9530469179,376.9952393,0.9535570145,
375.984375,0.9612758756,375.984375,0.9609806538,375.984375,0.9618912339,
375.012207,0.9691166878,375.012207,0.9681170583,375.012207,0.9689129591,
374.0010376,0.9773642421,374.0010376,0.9774672985,374.0010376,0.9779000878,
372.9896851,0.9854360819,372.9896851,0.9848846197,372.9896851,0.9859387875,
372.0171204,0.9934351444,372.0171204,0.9931383729,372.0171204,0.9929386377,
371.0055237,1.000723481,371.0055237,1.000739932,371.0055237,1.001080513,
369.9937134,1.010251999,369.9937134,1.009403825,369.9937134,1.009832621,
368.9818115,1.019537091,368.9818115,1.019402623,368.9818115,1.019505858,
368.0086365,1.02720952,368.0086365,1.026394367,368.0086365,1.026526213,
366.9964294,1.03532815,366.9964294,1.034114361,366.9964294,1.034247994,
365.9840393,1.043255925,365.9840393,1.043000579,365.9840393,1.042097926,
365.0104675,1.05154717,365.0104675,1.051422477,365.0104675,1.051347613,
363.9978333,1.062239289,363.9978333,1.061766505,363.9978333,1.061546087,
362.9850159,1.068686485,362.9850159,1.069023013,362.9850159,1.068228364,
362.0109863,1.076103449,362.0109863,1.076824188,362.0109863,1.076117992,
360.9979248,1.084960699,360.9979248,1.08533597,360.9979248,1.08481884,
359.9846497,1.095241308,359.9846497,1.094877481,359.9846497,1.094542623,
359.0102539,1.104799986,359.0102539,1.104663372,359.0102539,1.104488969,
357.9967346,1.113221169,357.9967346,1.112933993,357.9967346,1.113500237,
356.9830322,1.122377992,356.9830322,1.121976733,356.9830322,1.121952295,
356.0081787,1.130997419,356.0081787,1.129985571,356.0081787,1.130996704,
354.9942322,1.141659856,354.9942322,1.141218901,354.9942322,1.140036225,
354.019165,1.150485039,354.019165,1.15068543,354.019165,1.151536584,
353.0048828,1.160781145,353.0048828,1.160761952,353.0048828,1.160444021,
351.9904785,1.170006752,351.9904785,1.169883132,351.9904785,1.169082403,
351.0149536,1.180673122,351.0149536,1.179452181,351.0149536,1.178079724,
350.0003052,1.189857721,350.0003052,1.190534711,350.0003052,1.190475941,
348.9855042,1.2037673,348.9855042,1.201637983,348.9855042,1.201605082,
348.0095825,1.213654995,348.0095825,1.212633252,348.0095825,1.213376164,
346.9945068,1.223266959,346.9945068,1.22366333,346.9945068,1.223098993,
346.0183105,1.233403683,346.0183105,1.234026194,346.0183105,1.232743979,
345.0029297,1.244842887,345.0029297,1.243877649,345.0029297,1.244033098,
343.9874573,1.258176327,343.9874573,1.255449176,343.9874573,1.256356835,
343.0108643,1.269427538,343.0108643,1.268610597,343.0108643,1.268295884,
341.9950562,1.280226588,341.9950562,1.279480457,341.9950562,1.280154347,
341.018219,1.291802287,341.018219,1.291692019,341.018219,1.292365074,
340.0021667,1.305117726,340.0021667,1.305285811,340.0021667,1.306252599,
338.9859619,1.318664074,338.9859619,1.318154454,338.9859619,1.318257809,
338.008728,1.331342697,338.008728,1.330480337,338.008728,1.330970764,
336.9922485,1.344078302,336.9922485,1.343721032,336.9922485,1.343263268,
336.01474,1.356924176,336.01474,1.356284142,336.01474,1.357177258,
334.9980469,1.37119782,334.9980469,1.370929718,334.9980469,1.371437311,
333.9811401,1.385442019,333.9811401,1.386151671,333.9811401,1.387016654,
333.0032654,1.400239825,333.0032654,1.401092172,333.0032654,1.399707556,
331.986145,1.41403687,331.986145,1.413414359,331.986145,1.414571643,
331.0080261,1.431759477,331.0080261,1.428858042,331.0080261,1.42875278,
329.9906006,1.4467417,329.9906006,1.446467638,329.9906006,1.445174813,
329.012207,1.464218855,329.012207,1.464717388,329.012207,1.46336627,
327.9945374,1.480613112,327.9945374,1.481621981,327.9945374,1.479884744,
327.0158997,1.497357726,327.0158997,1.495686889,327.0158997,1.495707154,
325.9979858,1.512512445,325.9979858,1.514973402,325.9979858,1.512853503,
325.0190735,1.534008741,325.0190735,1.532966018,325.0190735,1.534379363,
324.000885,1.553028464,324.000885,1.552158594,324.000885,1.555359721,
322.9825745,1.573410034,322.9825745,1.573379755,322.9825745,1.574368596,
322.0032959,1.589665651,322.0032959,1.591187477,322.0032959,1.593078613,
320.9847107,1.612925053,320.9847107,1.61175096,320.9847107,1.615307331,
320.005188,1.633541465,320.005188,1.634363294,320.005188,1.634604216,
318.9863892,1.656375408,318.9863892,1.657676697,318.9863892,1.660311341,
318.0066223,1.678935051,318.0066223,1.677483916,318.0066223,1.677114606,
316.9875488,1.699559689,316.9875488,1.70106709,316.9875488,1.702643037,
316.0075073,1.72150743,316.0075073,1.71896553,316.0075073,1.721420765,
314.9881897,1.745899677,314.9881897,1.744226575,314.9881897,1.743702173,
314.0079651,1.77135253,314.0079651,1.771519899,314.0079651,1.771444798,
312.9883728,1.797959208,312.9883728,1.794119954,312.9883728,1.79472208,
312.0078735,1.813939095,312.0078735,1.812703609,312.0078735,1.812107921,
310.9880371,1.841083765,310.9880371,1.841960192,310.9880371,1.840113759,
310.0073242,1.870792389,310.0073242,1.869814992,310.0073242,1.869645596,
308.9872437,1.896910787,308.9872437,1.89404726,308.9872437,1.894287109,
308.0062561,1.926187754,308.0062561,1.928384662,308.0062561,1.920621157,
306.9859314,1.953956127,306.9859314,1.951557636,306.9859314,1.94905889,
306.0047302,1.988888741,306.0047302,1.984994054,306.0047302,1.985457659,
304.9841614,2.012478352,304.9841614,2.012646437,304.9841614,2.016777515,
304.0027466,2.052669048,304.0027466,2.049339533,304.0027466,2.051180124,
302.9819031,2.083309412,302.9819031,2.08435154,302.9819031,2.083453655,
302.0002441,2.115254402,302.0002441,2.115653276,302.0002441,2.114607334,
301.0184326,2.152788401,301.0184326,2.148333311,301.0184326,2.153695345,
299.9972839,2.195454121,299.9972839,2.191620111,299.9972839,2.194074154,

trial1,
trial1
Collection Time: 2/26/2025 3:22:02 PM
Operator Name  :
Scan Version 5.1.3.1042
Parameter List :
Instrument  Cary 60
Instrument Version  2.00
Start (nm)  800.0
Stop (nm)  300.0
X Mode  Nanometers
Y Mode  Abs
UV-Vis Scan Rate (nm/min)  600.00
UV-Vis Data Interval (nm)  1.00
UV-Vis Ave. Time (sec)  0.1000
Beam Mode  Dual Beam
Baseline Correction  Off
Cycle Mode  Off
Method Log     :
Method Name    :
Date/Time stamp: 2/26/2025 1:30:17 PM
Method Modifications:
UVVIS SAT Changed: 2/26/2025 1:32:06 PM, Old:0.0125, New:0.1000
Common SAT Changed: 2/26/2025 1:32:06 PM, Old:0.0125, New:0.1000
X Stop nm Changed: 2/26/2025 1:32:10 PM, Old:  200.0, New:  300.0
Common Interval nm Changed: 2/26/2025 1:32:10 PM, Old:     5.00, New:     1.00
UVVIS SAT Changed: 2/26/2025 2:56:33 PM, Old:0.1000, New:0.0125
Common SAT Changed: 2/26/2025 2:56:33 PM, Old:0.1000, New:0.0125
UVVIS SAT Changed: 2/26/2025 3:13:12 PM, Old:0.0125, New:0.1000
Common SAT Changed: 2/26/2025 3:13:12 PM, Old:0.0125, New:0.1000
UVVIS SAT Changed: 2/26/2025 3:16:38 PM, Old:0.1000, New:0.0125
Common SAT Changed: 2/26/2025 3:16:38 PM, Old:0.1000, New:0.0125
Common Interval nm Changed: 2/26/2025 3:16:39 PM, Old:     1.00, New:     2.00
UVVIS SAT Changed: 2/26/2025 3:21:30 PM, Old:0.0125, New:0.1000
Common SAT Changed: 2/26/2025 3:21:30 PM, Old:0.0125, New:0.1000
Common Interval nm Changed: 2/26/2025 3:21:32 PM, Old:     2.00, New:     1.00
End Method Modifications
<Current Wavelength> , 300.0

trial2,
trial2
Collection Time: 2/26/2025 3:23:11 PM
Operator Name  :
Scan Version 5.1.3.1042
Parameter List :
Instrument  Cary 60
Instrument Version  2.00
Start (nm)  800.0
Stop (nm)  300.0
X Mode  Nanometers
Y Mode  Abs
UV-Vis Scan Rate (nm/min)  600.00
UV-Vis Data Interval (nm)  1.00
UV-Vis Ave. Time (sec)  0.1000
Beam Mode  Dual Beam
Baseline Correction  Off
Cycle Mode  Off
Method Log     :
Method Name    :
Date/Time stamp: 2/26/2025 1:30:17 PM
Method Modifications:
UVVIS SAT Changed: 2/26/2025 1:32:06 PM, Old:0.0125, New:0.1000
Common SAT Changed: 2/26/2025 1:32:06 PM, Old:0.0125, New:0.1000
X Stop nm Changed: 2/26/2025 1:32:10 PM, Old:  200.0, New:  300.0
Common Interval nm Changed: 2/26/2025 1:32:10 PM, Old:     5.00, New:     1.00
UVVIS SAT Changed: 2/26/2025 2:56:33 PM, Old:0.1000, New:0.0125
Common SAT Changed: 2/26/2025 2:56:33 PM, Old:0.1000, New:0.0125
UVVIS SAT Changed: 2/26/2025 3:13:12 PM, Old:0.0125, New:0.1000
Common SAT Changed: 2/26/2025 3:13:12 PM, Old:0.0125, New:0.1000
UVVIS SAT Changed: 2/26/2025 3:16:38 PM, Old:0.1000, New:0.0125
Common SAT Changed: 2/26/2025 3:16:38 PM, Old:0.1000, New:0.0125
Common Interval nm Changed: 2/26/2025 3:16:39 PM, Old:     1.00, New:     2.00
UVVIS SAT Changed: 2/26/2025 3:21:30 PM, Old:0.0125, New:0.1000
Common SAT Changed: 2/26/2025 3:21:30 PM, Old:0.0125, New:0.1000
Common Interval nm Changed: 2/26/2025 3:21:32 PM, Old:     2.00, New:     1.00
End Method Modifications
<Current Wavelength> , 304.4

trial3,
trial3
Collection Time: 2/26/2025 3:24:09 PM
Operator Name  :
Scan Version 5.1.3.1042
Parameter List :
Instrument  Cary 60
Instrument Version  2.00
Start (nm)  800.0
Stop (nm)  300.0
X Mode  Nanometers
Y Mode  Abs
UV-Vis Scan Rate (nm/min)  600.00
UV-Vis Data Interval (nm)  1.00
UV-Vis Ave. Time (sec)  0.1000
Beam Mode  Dual Beam
Baseline Correction  Off
Cycle Mode  Off
Method Log     :
Method Name    :
Date/Time stamp: 2/26/2025 1:30:17 PM
Method Modifications:
UVVIS SAT Changed: 2/26/2025 1:32:06 PM, Old:0.0125, New:0.1000
Common SAT Changed: 2/26/2025 1:32:06 PM, Old:0.0125, New:0.1000
X Stop nm Changed: 2/26/2025 1:32:10 PM, Old:  200.0, New:  300.0
Common Interval nm Changed: 2/26/2025 1:32:10 PM, Old:     5.00, New:     1.00
UVVIS SAT Changed: 2/26/2025 2:56:33 PM, Old:0.1000, New:0.0125
Common SAT Changed: 2/26/2025 2:56:33 PM, Old:0.1000, New:0.0125
UVVIS SAT Changed: 2/26/2025 3:13:12 PM, Old:0.0125, New:0.1000
Common SAT Changed: 2/26/2025 3:13:12 PM, Old:0.0125, New:0.1000
UVVIS SAT Changed: 2/26/2025 3:16:38 PM, Old:0.1000, New:0.0125
Common SAT Changed: 2/26/2025 3:16:38 PM, Old:0.1000, New:0.0125
Common Interval nm Changed: 2/26/2025 3:16:39 PM, Old:     1.00, New:     2.00
UVVIS SAT Changed: 2/26/2025 3:21:30 PM, Old:0.0125, New:0.1000
Common SAT Changed: 2/26/2025 3:21:30 PM, Old:0.0125, New:0.1000
Common Interval nm Changed: 2/26/2025 3:21:32 PM, Old:     2.00, New:     1.00
End Method Modifications
<Current Wavelength> , 300.0

