trial1,,trial2,,trial3,,
Wavelength (nm),Abs,Wavelength (nm),Abs,Wavelength (nm),Abs,
799.9968262,0.01486318279,799.9968262,0.01473398134,799.9968262,0.01433994249,
798.9871826,0.01502307877,798.9871826,0.01517003216,798.9871826,0.01513625775,
798.0119019,0.01528968476,798.0119019,0.01505295839,798.0119019,0.01483015623,
797.0014038,0.01416307501,797.0014038,0.01473933645,797.0014038,0.01472675055,
795.9905396,0.0146887796,795.9905396,0.01470273081,795.9905396,0.01408715453,
795.0140991,0.01495469827,795.0140991,0.01489548944,795.0140991,0.01483618282,
794.0025024,0.01506426744,794.0025024,0.0147333378,794.0025024,0.01453602035,
792.9903564,0.01406038925,792.9903564,0.01455462351,792.9903564,0.01410774421,
792.0128784,0.01488705166,792.0128784,0.01473590918,792.0128784,0.01489787363,
790.999939,0.01448620949,790.999939,0.01506287418,790.999939,0.01445559226,
789.9866333,0.01424374245,789.9866333,0.01415545214,789.9866333,0.01446945593,
789.0079956,0.01507552341,789.0079956,0.01521968003,789.0079956,0.01414906047,
787.9938965,0.01443608385,787.9938965,0.01450242847,787.9938965,0.0145423105,
787.0144653,0.01382598933,787.0144653,0.01460347883,787.0144653,0.01393642463,
785.9996338,0.01378855202,785.9996338,0.01400536671,785.9996338,0.01411512494,
784.984375,0.01449033152,784.984375,0.01448339969,784.984375,0.0145939216,
784.0037842,0.01458018832,784.0037842,0.01448527258,784.0037842,0.01456471533,
782.9877319,0.01403496228,782.9877319,0.01354463026,782.9877319,0.01410878729,
782.0064087,0.01429689582,782.0064087,0.01469049323,782.0064087,0.01392177679,
780.989563,0.01424879767,780.989563,0.01409715507,780.989563,0.0146096088,
780.0075684,0.01390924025,780.0075684,0.01407223474,780.0075684,0.01428362727,
778.9899292,0.01446391549,778.9899292,0.01405044273,778.9899292,0.01452807058,
778.0071411,0.0144842295,778.0071411,0.01413617097,778.0071411,0.01430264767,
776.9887695,0.01414143946,776.9887695,0.01431650575,776.9887695,0.0135484226,
776.005188,0.01379923988,776.005188,0.0139789274,776.005188,0.01418877672,
774.9860229,0.01443819795,774.9860229,0.01434074529,774.9860229,0.01443255134,
774.001709,0.01403924078,774.001709,0.01377126388,774.001709,0.01408063062,
773.0169678,0.01417818479,773.0169678,0.01433199644,773.0169678,0.01407175325,
771.9967041,0.01466425322,771.9967041,0.0143810669,771.9967041,0.01419318933,
771.0112305,0.01448240876,771.0112305,0.01454137359,771.0112305,0.01451685559,
769.9902344,0.01456897147,769.9902344,0.01441609394,769.9902344,0.01516649406,
769.0039673,0.01452188753,769.0039673,0.01434400957,769.0039673,0.01471341494,
768.0174561,0.01555111445,768.0174561,0.01528992597,768.0174561,0.01553032175,
766.9953003,0.01564671844,766.9953003,0.01543442067,766.9953003,0.01591862179,
766.0079346,0.01595079154,766.0079346,0.01581482217,766.0079346,0.016404761,
764.9850464,0.01639352366,764.9850464,0.01705383882,764.9850464,0.01664367691,
763.9970093,0.01606829651,763.9970093,0.01625755057,763.9970093,0.01619029231,
763.008667,0.01668095961,763.008667,0.01681475155,763.008667,0.0171982497,
761.9845581,0.01649646647,761.9845581,0.01644573174,761.9845581,0.01654306613,
760.9954224,0.01668085158,760.9954224,0.01693687588,760.9954224,0.01686690189,
760.0059814,0.01628668234,760.0059814,0.01644118875,760.0059814,0.01661624387,
759.0161133,0.01589840278,759.0161133,0.01547715161,759.0161133,0.01579640619,
757.9904785,0.0159140043,757.9904785,0.01556257065,757.9904785,0.01545394864,
757,0.01519158483,757,0.0147824809,757,0.01539523527,
756.0089722,0.01484194119,756.0089722,0.01472605392,756.0089722,0.01484448649,
754.9822998,0.01450596191,754.9822998,0.01455355342,754.9822998,0.014520308,
753.9906616,0.01392383501,753.9906616,0.01398988813,753.9906616,0.01406012196,
752.9986572,0.01373997517,752.9986572,0.01363528054,752.9986572,0.01413534209,
752.0062866,0.01364380121,752.0062866,0.01356746443,752.0062866,0.01404859871,
751.0135498,0.01379325427,751.0135498,0.01397876721,751.0135498,0.01396034844,
749.9849854,0.01382526755,749.9849854,0.01336795278,749.9849854,0.01371160243,
748.9915771,0.01389015652,748.9915771,0.01359040756,748.9915771,0.01376124378,
747.9978027,0.01321234833,747.9978027,0.01334422175,747.9978027,0.01332732476,
747.0036621,0.01292522624,747.0036621,0.01305855997,747.0036621,0.01295282785,
746.0090942,0.01255483273,746.0090942,0.01241331641,746.0090942,0.01282173954,
745.0142822,0.01239935961,745.0142822,0.01183677837,745.0142822,0.0118159242,
743.9835205,0.01150872372,743.9835205,0.01117501967,743.9835205,0.01122957841,
742.987915,0.01052174624,742.987915,0.01061574649,742.987915,0.01040639635,
741.9920654,0.0100442376,741.9920654,0.009579901583,741.9920654,0.01000855397,
740.9957886,0.008949024603,740.9957886,0.008872029372,740.9957886,0.009058041498,
739.9992065,0.008078061976,739.9992065,0.008046285249,739.9992065,0.008450699039,
739.0021973,0.007406518329,739.0021973,0.007244374603,739.0021973,0.007233082782,
738.0048828,0.006385252345,738.0048828,0.006637222599,738.0048828,0.006614618469,
737.0072021,0.006128624082,737.0072021,0.006095807999,737.0072021,0.006119933911,
736.0091553,0.005292823538,736.0091553,0.005513433367,736.0091553,0.005618181545,
735.0108032,0.004839296453,735.0108032,0.004863326903,735.0108032,0.004895552527,
734.012085,0.004565581679,734.012085,0.004437994212,734.012085,0.004482585471,
733.0130615,0.003762598848,733.0130615,0.003654303029,733.0130615,0.003927731421,
732.0136719,0.003476357553,732.0136719,0.003398813074,732.0136719,0.003455143655,
731.013916,0.002837524517,731.013916,0.002738133539,731.013916,0.002851464553,
730.0137939,0.002748605795,730.0137939,0.00213123532,730.0137939,0.002366980072,
729.0133057,0.002189691179,729.0133057,0.001973987324,729.0133057,0.001986079384,
728.0125732,0.001833433053,728.0125732,0.001707477262,728.0125732,0.001764862449,
727.0114746,0.001579531468,727.0114746,0.001611826126,727.0114746,0.001691676909,
726.0100098,0.001394331455,726.0100098,0.001379996771,726.0100098,0.001278108917,
725.0081787,0.001248227316,725.0081787,0.00124755234,725.0081787,0.001460350235,
724.0060425,0.001068695798,724.0060425,0.001115667401,724.0060425,0.001261960599,
723.00354,0.001549888984,723.00354,0.001284287893,723.00354,0.001180917025,
722.0007935,0.001003930112,722.0007935,0.001318689785,722.0007935,0.001305240323,
720.9975586,0.001716469182,720.9975586,0.00150840322,720.9975586,0.001529470319,
719.9940186,0.001733336016,719.9940186,0.001921696705,719.9940186,0.001858649426,
718.9901733,0.001714312122,718.9901733,0.001653763466,718.9901733,0.00207559648,
717.9859009,0.002420001198,717.9859009,0.002345950343,717.9859009,0.002749725943,
717.017334,0.002688642126,717.017334,0.002898655366,717.017334,0.002779007424,
716.0124512,0.003289251821,716.0124512,0.003422711743,716.0124512,0.003153824946,
715.0072632,0.003663126612,715.0072632,0.003901454387,715.0072632,0.003900801297,
714.00177,0.004522289615,714.00177,0.004316849634,714.00177,0.004296064842,
712.9958496,0.005160516594,712.9958496,0.0053174817,712.9958496,0.005319473334,
711.989624,0.005872881506,711.989624,0.005753224716,711.989624,0.005915521178,
710.9831543,0.006553750485,710.9831543,0.006598769687,710.9831543,0.006781969685,
710.012207,0.007159390952,710.012207,0.007482226938,710.012207,0.007533532102,
709.0049438,0.008150273934,709.0049438,0.008215507492,709.0049438,0.008129542693,
707.9973755,0.009071151726,707.9973755,0.008817871101,707.9973755,0.00903454423,
706.989563,0.009637330659,706.989563,0.009570824914,706.989563,0.009573338553,
706.017395,0.01076646894,706.017395,0.01072443835,706.017395,0.01089876983,
705.0088501,0.01153700706,705.0088501,0.01152570918,705.0088501,0.0117427269,
704,0.01263666805,704,0.01243068371,704,0.01227336377,
702.9907837,0.01357128378,702.9907837,0.01331392489,702.9907837,0.01319145411,
702.017334,0.01419939473,702.017334,0.01380592026,702.017334,0.01405571029,
701.0074463,0.01508544013,701.0074463,0.01508549321,701.0074463,0.01519418508,
699.9973145,0.01601022482,699.9973145,0.01607267559,699.9973145,0.01608583704,
698.9868164,0.01636462845,698.9868164,0.0165082179,698.9868164,0.01640914381,
698.012085,0.01688614301,698.012085,0.01713666134,698.012085,0.01731064916,
697.0009155,0.0183551833,697.0009155,0.01849003322,697.0009155,0.01828724705,
695.9894409,0.0192664247,695.9894409,0.01896391623,695.9894409,0.01920741051,
695.0137939,0.01960613765,695.0137939,0.0196544528,695.0137939,0.01941352338,
694.0016479,0.02065531723,694.0016479,0.02041095495,694.0016479,0.02051167935,
692.9891968,0.02128827199,692.9891968,0.02165639773,692.9891968,0.02104344591,
692.0125732,0.02167169005,692.0125732,0.02170026116,692.0125732,0.02195395343,
690.9995117,0.02236545645,690.9995117,0.02258883417,690.9995117,0.02251101844,
689.986084,0.02320110425,689.986084,0.02334363945,689.986084,0.02334634401,
689.0085449,0.02371895313,689.0085449,0.02398113161,689.0085449,0.02384757437,
687.9944458,0.02447912283,687.9944458,0.0245493222,687.9944458,0.02424962632,
687.0162964,0.02488806657,687.0162964,0.02499284968,687.0162964,0.02516524307,
686.0015869,0.02544416115,686.0015869,0.02538715489,686.0015869,0.02548632212,
684.9865723,0.02564844862,684.9865723,0.0258920379,684.9865723,0.02595169283,
684.0074463,0.0264064502,684.0074463,0.0265529044,684.0074463,0.02625410631,
682.9918823,0.02690855414,682.9918823,0.02721838653,682.9918823,0.02724600211,
682.012146,0.02736913972,682.012146,0.02734118514,682.012146,0.02717473358,
680.9958496,0.02769166045,680.9958496,0.02775848843,680.9958496,0.0278312061,
680.015625,0.02817075327,680.015625,0.02840788662,680.015625,0.02798821963,
678.9985962,0.02873441577,678.9985962,0.0284520518,678.9985962,0.02878043987,
678.0177612,0.02898118272,678.0177612,0.0289688427,678.0177612,0.02913044579,
677.0001221,0.02960622497,677.0001221,0.0296616815,677.0001221,0.02971073985,
675.9822998,0.02986760251,675.9822998,0.02967961319,675.9822998,0.03018710017,
675.0004883,0.03018823825,675.0004883,0.03065159358,675.0004883,0.03050447442,
673.9819946,0.03081793897,673.9819946,0.03110885434,673.9819946,0.0306718722,
672.9995728,0.03111021593,672.9995728,0.0311144162,672.9995728,0.03101559542,
672.0168457,0.03149887174,672.0168457,0.03176448122,672.0168457,0.03138978034,
670.9974365,0.03182946146,670.9974365,0.03167431429,670.9974365,0.0322051309,
670.0140991,0.03238682449,670.0140991,0.03223641217,670.0140991,0.03247599676,
668.9940796,0.03256237134,668.9940796,0.03250127286,668.9940796,0.0325480029,
668.0101318,0.03253277019,668.0101318,0.03238807991,668.0101318,0.03252339736,
666.9894409,0.03228436783,666.9894409,0.03227207065,666.9894409,0.03229373693,
666.0049438,0.03213697299,666.0049438,0.03240693361,666.0049438,0.03211091086,
664.9836426,0.03213819861,664.9836426,0.03209619597,664.9836426,0.03197482973,
663.9985962,0.03201515228,663.9985962,0.03232870623,663.9985962,0.03183280304,
663.0131836,0.03221243247,663.0131836,0.03229911998,663.0131836,0.03202387318,
661.9909058,0.0320950523,661.9909058,0.03233681992,661.9909058,0.03231849894,
661.0050049,0.0324845612,661.0050049,0.03228615224,661.0050049,0.03242927417,
659.9821777,0.03247694671,659.9821777,0.03243549541,659.9821777,0.03231004998,
658.9955444,0.03214522451,658.9955444,0.03229577094,658.9955444,0.03244562075,
658.008728,0.03252336755,658.008728,0.03280119225,658.008728,0.03253949434,
656.9849854,0.03274491429,656.9849854,0.03283709288,656.9849854,0.03275359422,
655.9974976,0.03297523037,655.9974976,0.03283617273,655.9974976,0.03296406195,
655.0097656,0.03274190053,655.0097656,0.03288643062,655.0097656,0.03294710815,
653.9851074,0.033364553,653.9851074,0.03324468061,653.9851074,0.03328643367,
652.9967651,0.0332099162,652.9967651,0.03322363645,652.9967651,0.03318295255,
652.0081787,0.03330722451,652.0081787,0.03358580172,652.0081787,0.03334501386,
650.982605,0.0338951461,650.982605,0.03388350457,650.982605,0.03379560634,
649.9934082,0.03382398188,649.9934082,0.0338755548,649.9934082,0.03370451182,
649.0039673,0.03393407911,649.0039673,0.03421401232,649.0039673,0.03396887332,
648.0141602,0.03411423042,648.0141602,0.0340000838,648.0141602,0.03415634483,
646.9874268,0.03436331823,646.9874268,0.03439904004,646.9874268,0.03453509882,
645.9971313,0.0342615433,645.9971313,0.03449543938,645.9971313,0.0346316658,
645.0064697,0.0343923457,645.0064697,0.03476047888,645.0064697,0.03445925936,
644.015564,0.03449342027,644.015564,0.03455404565,644.015564,0.03468061984,
642.9876099,0.03472615406,642.9876099,0.03449586034,642.9876099,0.03456833959,
641.9960938,0.03469127417,641.9960938,0.03477870673,641.9960938,0.03492803872,
641.0043945,0.03495822474,641.0043945,0.03485583514,641.0043945,0.03471864015,
640.0123291,0.03500887007,640.0123291,0.03541038558,640.0123291,0.03529907018,
638.9831543,0.03518071026,638.9831543,0.03531838581,638.9831543,0.03517127782,
637.9906006,0.03529530764,637.9906006,0.0353904143,637.9906006,0.03542007506,
636.9976196,0.03570447862,636.9976196,0.03580923378,636.9976196,0.03537173942,
636.0044556,0.03551411629,636.0044556,0.03590268269,636.0044556,0.0358171612,
635.0110474,0.03577072546,635.0110474,0.03566106036,635.0110474,0.03566898406,
634.0172729,0.03576875478,634.0172729,0.03595419601,634.0172729,0.03571240231,
632.9864502,0.0359143801,632.9864502,0.03593423218,632.9864502,0.03593021259,
631.9921265,0.03620833904,631.9921265,0.0361219123,631.9921265,0.03616709262,
630.9975586,0.03595624864,630.9975586,0.03620684519,630.9975586,0.03614188358,
630.0026245,0.03612199426,630.0026245,0.03621776402,630.0026245,0.03589883074,
629.0075073,0.03605535626,629.0075073,0.03609445691,629.0075073,0.03581755608,
628.012085,0.03611614555,628.012085,0.03641752899,628.012085,0.03610345721,
627.0163574,0.03615128249,627.0163574,0.0363044925,627.0163574,0.03623760119,
625.9835205,0.03621320426,625.9835205,0.03612129018,625.9835205,0.03640094772,
624.9873047,0.03637457266,624.9873047,0.03682499751,624.9873047,0.03650353476,
623.9907227,0.03658685833,623.9907227,0.03661690652,623.9907227,0.03669889644,
622.9939575,0.03669365868,622.9939575,0.03689093515,622.9939575,0.03680028766,
621.9968872,0.03697216138,621.9968872,0.03673143312,621.9968872,0.03681944683,
620.9995117,0.03706174716,620.9995117,0.03710561618,620.9995117,0.03718975559,
620.0018921,0.03713110462,620.0018921,0.03739194199,620.0018921,0.03700482845,
619.0040283,0.03719229251,619.0040283,0.03739874437,619.0040283,0.03729794547,
618.0058594,0.03737205267,618.0058594,0.03748438135,618.0058594,0.03771177679,
617.0073853,0.03776480258,617.0073853,0.03752936423,617.0073853,0.03749863058,
616.008728,0.03749033436,616.008728,0.03766660392,616.008728,0.03738435358,
615.0097656,0.03762290254,615.0097656,0.03796912357,615.0097656,0.03800579533,
614.010498,0.03786031157,614.010498,0.03802763298,614.010498,0.03783353791,
613.0109863,0.03801130503,613.0109863,0.03795358539,613.0109863,0.03786440939,
612.0112305,0.03824109584,612.0112305,0.03814979643,612.0112305,0.03807242215,
611.0111084,0.0383203961,611.0111084,0.03856398538,611.0111084,0.03833261132,
610.0108032,0.03844880685,610.0108032,0.03859589994,610.0108032,0.03853167966,
609.0101929,0.03863019124,609.0101929,0.03878385201,609.0101929,0.03850212321,
608.0093384,0.03882141411,608.0093384,0.0388084501,608.0093384,0.03894348815,
607.0082397,0.03910516575,607.0082397,0.03936654329,607.0082397,0.03910465539,
606.0068359,0.03932071477,606.0068359,0.03950459138,606.0068359,0.03936345503,
605.005188,0.03944211081,605.005188,0.03965141624,605.005188,0.03957226872,
604.0032959,0.03966125846,604.0032959,0.03981534392,604.0032959,0.03965053707,
603.0010986,0.03967580944,603.0010986,0.03983270749,603.0010986,0.03999988362,
601.9985962,0.04031192884,601.9985962,0.0404109247,601.9985962,0.04013327509,
600.9959106,0.04079355299,600.9959106,0.04087463021,600.9959106,0.04098183662,
599.9929199,0.04120782763,599.9929199,0.04135984182,599.9929199,0.04121815786,
598.989624,0.04183567688,598.989624,0.04223177209,598.989624,0.04183658957,
597.9862061,0.04245119169,597.9862061,0.0425128527,597.9862061,0.0423328355,
596.9824219,0.04269380122,596.9824219,0.04278780147,596.9824219,0.04286193475,
596.015625,0.04345962405,596.015625,0.04366128892,596.015625,0.04336977005,
595.0112305,0.04450697079,595.0112305,0.0442495048,595.0112305,0.04427642003,
594.0067139,0.04488693923,594.0067139,0.04513705522,594.0067139,0.04516905174,
593.0019531,0.04599646479,593.0019531,0.04617751762,593.0019531,0.04597306997,
591.9969482,0.04732019827,591.9969482,0.047636915,591.9969482,0.04751722515,
590.9915771,0.04890250415,590.9915771,0.04886171222,590.9915771,0.048798915,
589.9859619,0.05034993961,589.9859619,0.05060066283,589.9859619,0.05033744127,
589.017395,0.05183240399,589.017395,0.05191930011,589.017395,0.05187020451,
588.0112915,0.05371754989,588.0112915,0.0538447611,588.0112915,0.05394660309,
587.0048828,0.0558375828,587.0048828,0.05623525754,587.0048828,0.05598779768,
585.9983521,0.05851586908,585.9983521,0.05858829618,585.9983521,0.05845385045,
584.9914551,0.06174993888,584.9914551,0.06170646101,584.9914551,0.06189212576,
583.984375,0.06510217488,583.984375,0.06523036212,583.984375,0.06524008512,
583.0143433,0.06890197098,583.0143433,0.06888303906,583.0143433,0.06933311373,
582.0066528,0.07302834839,582.0066528,0.07328881323,582.0066528,0.07317391038,
580.9987793,0.07788874954,580.9987793,0.07779754698,580.9987793,0.07787852734,
579.9907227,0.08327946812,579.9907227,0.08323349804,579.9907227,0.08344117552,
578.9822388,0.09005685151,578.9822388,0.08997510374,578.9822388,0.08990941197,
578.0109863,0.09675844014,578.0109863,0.09701867402,578.0109863,0.09688444436,
577.0021362,0.1044158712,577.0021362,0.1044697687,577.0021362,0.1044693366,
575.992981,0.1127528995,575.992981,0.1128219664,575.992981,0.1128410324,
574.9835815,0.121753253,574.9835815,0.121733591,574.9835815,0.1221018434,
574.0114136,0.1321720928,574.0114136,0.1323271692,574.0114136,0.1324250251,
573.0014648,0.1437194347,573.0014648,0.1438169032,573.0014648,0.1441323012,
571.991333,0.156482026,571.991333,0.1564505547,571.991333,0.1566593349,
571.0183105,0.1695159674,571.0183105,0.1698146909,571.0183105,0.1698249876,
570.0077515,0.1841489971,570.0077515,0.184013471,570.0077515,0.1838905066,
568.9967651,0.1989755332,568.9967651,0.1987069994,568.9967651,0.1989261359,
567.9857178,0.2154742479,567.9857178,0.2154256254,567.9857178,0.2156034708,
567.0117798,0.2325302213,567.0117798,0.2320792228,567.0117798,0.2322999984,
566.0001831,0.2512763143,566.0001831,0.2510366738,566.0001831,0.2511126399,
564.9882813,0.2698453069,564.9882813,0.2698078454,564.9882813,0.2703150809,
564.0136719,0.2881580591,564.0136719,0.2879699767,564.0136719,0.2880623639,
563.0013428,0.306553334,563.0013428,0.3067808747,563.0013428,0.307126224,
561.9887695,0.3266417682,561.9887695,0.3266512752,561.9887695,0.3270471096,
561.0134277,0.3463377953,561.0134277,0.3463236392,561.0134277,0.3465933204,
560.0003052,0.3682028651,560.0003052,0.3680606782,560.0003052,0.3679489195,
558.9869385,0.3877918422,558.9869385,0.387740463,558.9869385,0.3877448142,
558.0109253,0.4053694308,558.0109253,0.4052030444,558.0109253,0.4052338898,
556.9971313,0.4238918126,556.9971313,0.4239494503,556.9971313,0.4236757755,
555.9830933,0.4427659512,555.9830933,0.4425505996,555.9830933,0.4422802031,
555.0063477,0.4605143368,555.0063477,0.4603054821,555.0063477,0.4605593383,
553.9918213,0.4780780971,553.9918213,0.4778911173,553.9918213,0.478325218,
553.0146484,0.49217996,553.0146484,0.492198199,553.0146484,0.4923354387,
551.9995728,0.506367743,551.9995728,0.5058826804,551.9995728,0.5060898066,
550.984375,0.5201480389,550.984375,0.5202534795,550.984375,0.520432055,
550.0064697,0.5334100127,550.0064697,0.5331335664,550.0064697,0.5337724686,
548.9907837,0.5460945964,548.9907837,0.545671165,548.9907837,0.5462104082,
548.0124512,0.5571599007,548.0124512,0.5570462942,548.0124512,0.5570929646,
546.9962158,0.5664747953,546.9962158,0.5664069057,546.9962158,0.5665509105,
546.017395,0.5745597482,546.017395,0.5745365024,546.017395,0.5746801496,
545.0007324,0.5835213661,545.0007324,0.5828291774,545.0007324,0.5831332803,
543.9838867,0.5902177095,543.9838867,0.5900378823,543.9838867,0.5903646946,
543.0043945,0.5967451334,543.0043945,0.5966182351,543.0043945,0.5967265964,
541.9870605,0.6021180749,541.9870605,0.6019653082,541.9870605,0.6021481752,
541.0071411,0.6060683131,541.0071411,0.6057858467,541.0071411,0.6060014963,
539.9892578,0.6106309891,539.9892578,0.6107704043,539.9892578,0.6105841398,
539.0089111,0.6142123342,539.0089111,0.6140754819,539.0089111,0.6143919826,
537.9905396,0.6173347235,537.9905396,0.6176435351,537.9905396,0.6177557707,
537.0097656,0.6199554205,537.0097656,0.6198202372,537.0097656,0.6199647784,
535.9909058,0.6224800944,535.9909058,0.6223561168,535.9909058,0.622682333,
535.0097046,0.6242843866,535.0097046,0.6245275736,535.0097046,0.6245570779,
533.9904785,0.6258090734,533.9904785,0.625405848,533.9904785,0.6260486245,
533.008728,0.6267680526,533.008728,0.6264349222,533.008728,0.6265699267,
531.9890747,0.628258884,531.9890747,0.6280219555,531.9890747,0.6282560229,
531.006958,0.6293273568,531.006958,0.629259944,531.006958,0.6294927001,
529.9867554,0.6302852035,529.9867554,0.6298178434,529.9867554,0.6302351952,
529.0042114,0.630466938,529.0042114,0.6302433014,529.0042114,0.6305240989,
527.9835205,0.6308568716,527.9835205,0.6305348873,527.9835205,0.630789578,
527.0005493,0.6315681338,527.0005493,0.6314570904,527.0005493,0.6318776011,
526.017334,0.6318941116,526.017334,0.6316778064,526.017334,0.6321142316,
524.9959717,0.6320574284,524.9959717,0.6320222616,524.9959717,0.6322732568,
524.0123291,0.6329769492,524.0123291,0.6324652433,524.0123291,0.6330513954,
522.9906006,0.633869946,522.9906006,0.6335074902,522.9906006,0.6338287592,
522.0065308,0.6337129474,522.0065308,0.6337045431,522.0065308,0.6341483593,
520.984314,0.6351472735,520.984314,0.6348004937,520.984314,0.6350914836,
519.9998169,0.6357337832,519.9998169,0.6355455518,519.9998169,0.6359673142,
519.0150146,0.6362959146,519.0150146,0.6357840896,519.0150146,0.6365182996,
517.9921265,0.6371879578,517.9921265,0.6373069286,517.9921265,0.6375520825,
517.006958,0.6385315657,517.006958,0.6380328536,517.006958,0.63834095,
515.9836426,0.6394572258,515.9836426,0.6396141648,515.9836426,0.6399009228,
514.9980469,0.6408618689,514.9980469,0.6407071948,514.9980469,0.6409834623,
514.0122681,0.6425570846,514.0122681,0.6426559091,514.0122681,0.6430373192,
512.9882813,0.6444621682,512.9882813,0.6440168619,512.9882813,0.6445633173,
512.0020752,0.6462787986,512.0020752,0.6465835571,512.0020752,0.646638453,
511.015625,0.648658812,511.015625,0.6486694217,511.015625,0.6490756273,
509.9909363,0.6511759162,509.9909363,0.6510791779,509.9909363,0.6520203948,
509.0040894,0.6540964246,509.0040894,0.6540454626,509.0040894,0.6539885998,
508.0169983,0.6574972868,508.0169983,0.6574976444,508.0169983,0.6572371721,
506.9917297,0.6607345343,506.9917297,0.6605763435,506.9917297,0.661248982,
506.0042419,0.6646901369,506.0042419,0.6640384197,506.0042419,0.6646740437,
505.0164795,0.66773206,505.0164795,0.6673682928,505.0164795,0.6675575972,
503.9906006,0.671297431,503.9906006,0.6707099676,503.9906006,0.6711069345,
503.0025024,0.6749590635,503.0025024,0.67461133,503.0025024,0.6753903031,
502.0140991,0.6785914302,502.0140991,0.6787444949,502.0140991,0.6792150736,
500.9876099,0.6817840934,500.9876099,0.6819517016,500.9876099,0.681838572,
499.9988708,0.6849490404,499.9988708,0.6843655705,499.9988708,0.6850724816,
499.0098267,0.6879960895,499.0098267,0.6878133416,499.0098267,0.6881194711,
497.982666,0.6915001869,497.982666,0.6913102269,497.982666,0.6913720369,
496.9932556,0.6945292354,496.9932556,0.6939463615,496.9932556,0.6947547793,
496.0036621,0.6981190443,496.0036621,0.6976454258,496.0036621,0.6978837848,
495.013916,0.7007055283,495.013916,0.7007626891,495.013916,0.7008895278,
493.9858704,0.7040528655,493.9858704,0.7039520144,493.9858704,0.7045884728,
492.9956665,0.7078198195,492.9956665,0.7074850202,492.9956665,0.7078459859,
492.0053406,0.7104984522,492.0053406,0.7104360461,492.0053406,0.7106249928,
491.0147095,0.7146099806,491.0147095,0.7144815326,491.0147095,0.7149322033,
489.9858398,0.7192347646,489.9858398,0.7190824747,489.9858398,0.719464004,
488.9948425,0.7233463526,488.9948425,0.7228637934,488.9948425,0.7233445048,
488.0036316,0.7270306945,488.0036316,0.7268055677,488.0036316,0.7270358205,
487.0122681,0.7319505811,487.0122681,0.7314529419,487.0122681,0.7321760058,
485.9824829,0.7380387187,485.9824829,0.7377825379,485.9824829,0.7382824421,
484.9906921,0.7429691553,484.9906921,0.7426544428,484.9906921,0.7431669831,
483.9986877,0.7470483184,483.9986877,0.7468230724,483.9986877,0.7471363544,
483.0065613,0.7530414462,483.0065613,0.7527858615,483.0065613,0.7531067729,
482.0141296,0.7595821619,482.0141296,0.7592141628,482.0141296,0.7595470548,
480.983429,0.766127646,480.983429,0.7659294009,480.983429,0.7662082911,
479.9906616,0.7732831836,479.9906616,0.7729532719,479.9906616,0.7733995914,
478.9976501,0.7794314623,478.9976501,0.7799480557,478.9976501,0.779902041,
478.0044861,0.786416173,478.0044861,0.7863714695,478.0044861,0.7862877846,
477.0111389,0.793372035,477.0111389,0.7929899096,477.0111389,0.7934126854,
476.0175476,0.8004327416,476.0175476,0.800078392,476.0175476,0.8005598783,
474.9855652,0.8079253435,474.9855652,0.8078050613,474.9855652,0.8085306287,
473.9916382,0.8154530525,473.9916382,0.8153998852,473.9916382,0.8157086968,
472.997467,0.8224418163,472.997467,0.8220659494,472.997467,0.8228800893,
472.0031433,0.8285571933,472.0031433,0.8294090629,472.0031433,0.8292967677,
471.0086365,0.8356564641,471.0086365,0.8357687593,471.0086365,0.8360417485,
470.0138245,0.8433173299,470.0138245,0.843064487,470.0138245,0.8433664441,
469.0189514,0.8512153625,469.0189514,0.8507503867,469.0189514,0.8513159156,
467.9855957,0.8586229682,467.9855957,0.8588785529,467.9855957,0.8591665626,
466.9902344,0.8663471937,466.9902344,0.8661761284,466.9902344,0.8670635819,
465.994751,0.8739831448,465.994751,0.8740826845,465.994751,0.8746219277,
464.9990845,0.8822271824,464.9990845,0.8822458386,464.9990845,0.882810533,
464.0032043,0.892537415,464.0032043,0.8922807574,464.0032043,0.8923649192,
463.0071411,0.9028649926,463.0071411,0.9028312564,463.0071411,0.9033530354,
462.0108643,0.9139359593,462.0108643,0.9131313562,462.0108643,0.913603127,
461.0144653,0.9242023826,461.0144653,0.9242091179,461.0144653,0.924741447,
460.0178223,0.9370089173,460.0178223,0.9366141558,460.0178223,0.9368280172,
458.9826965,0.953361392,458.9826965,0.9527152777,458.9826965,0.9539080858,
457.9856873,0.9702660441,457.9856873,0.9692417979,457.9856873,0.9698742032,
456.9884644,0.9830980897,456.9884644,0.9834802151,456.9884644,0.983648181,
455.9910889,0.9936210513,455.9910889,0.993652761,455.9910889,0.9940444827,
454.9935303,1.003446341,454.9935303,1.003895402,454.9935303,1.003697395,
453.9957581,1.011380196,453.9957581,1.011632204,453.9957581,1.012069225,
452.9978333,1.017876267,452.9978333,1.017932296,452.9978333,1.018137574,
451.9997253,1.022701025,451.9997253,1.022674561,451.9997253,1.023019552,
451.0014343,1.026858091,451.0014343,1.026776075,451.0014343,1.027095795,
450.0029297,1.030496836,450.0029297,1.030328631,450.0029297,1.031357288,
449.0042419,1.034978867,449.0042419,1.034703255,449.0042419,1.035073996,
448.0054016,1.039100885,448.0054016,1.038882017,448.0054016,1.039616585,
447.0063477,1.043612003,447.0063477,1.043956757,447.0063477,1.044074059,
446.0071716,1.048477769,446.0071716,1.048006892,446.0071716,1.049275279,
445.0077515,1.053748369,445.0077515,1.053668737,445.0077515,1.054238319,
444.0081482,1.06006515,444.0081482,1.059972763,444.0081482,1.060342669,
443.0083923,1.066339374,443.0083923,1.066391826,443.0083923,1.066967607,
442.0084839,1.073667288,442.0084839,1.07352078,442.0084839,1.074193478,
441.0083923,1.081567883,441.0083923,1.081261754,441.0083923,1.081881642,
440.0080566,1.090152025,440.0080566,1.089278221,440.0080566,1.0896101,
439.0075684,1.098872185,439.0075684,1.098790526,439.0075684,1.09886241,
438.0069275,1.109017253,438.0069275,1.107725501,438.0069275,1.108280897,
437.006073,1.118637443,437.006073,1.11865449,437.006073,1.118987918,
436.0050659,1.128251433,436.0050659,1.128337264,436.0050659,1.128366709,
435.0038757,1.13868773,435.0038757,1.138514519,435.0038757,1.138765097,
434.002533,1.148258924,434.002533,1.148103118,434.002533,1.148265004,
433.0009766,1.159044623,433.0009766,1.158614874,433.0009766,1.15941143,
431.9992371,1.170361161,431.9992371,1.170820117,431.9992371,1.170366645,
430.997406,1.180004716,430.997406,1.180029154,430.997406,1.180485606,
429.9952698,1.18935883,429.9952698,1.188664794,429.9952698,1.189902902,
428.993042,1.197876811,428.993042,1.197472215,428.993042,1.198029995,
427.9906006,1.205839515,427.9906006,1.206550956,427.9906006,1.207522154,
426.9880371,1.214288354,426.9880371,1.214246273,426.9880371,1.215096831,
425.9852295,1.222887635,425.9852295,1.223043442,425.9852295,1.223514318,
424.9823303,1.230484724,424.9823303,1.230173588,424.9823303,1.231078029,
424.0177917,1.237587094,424.0177917,1.237492681,424.0177917,1.237918019,
423.0144958,1.245376229,423.0144958,1.247059584,423.0144958,1.247055292,
422.0111084,1.253633857,422.0111084,1.253320336,422.0111084,1.253935456,
421.0074158,1.263379455,421.0074158,1.262804031,421.0074158,1.263783455,
420.0036316,1.272373319,420.0036316,1.271395087,420.0036316,1.271631241,
418.9996948,1.279696107,418.9996948,1.278950691,418.9996948,1.279117107,
417.9955139,1.288854957,417.9955139,1.287972093,417.9955139,1.288640618,
416.9912109,1.297512054,416.9912109,1.297456264,416.9912109,1.297046423,
415.9867554,1.30662632,415.9867554,1.307062626,415.9867554,1.306399345,
414.9821472,1.315757394,414.9821472,1.31583178,414.9821472,1.315004468,
414.0159607,1.323600292,414.0159607,1.3241328,414.0159607,1.324999571,
413.0109253,1.334495783,413.0109253,1.333116055,413.0109253,1.334050894,
412.0058289,1.342817307,412.0058289,1.342548013,412.0058289,1.34345901,
411.0004883,1.351422668,411.0004883,1.352860808,411.0004883,1.352684617,
409.9949951,1.36270988,409.9949951,1.363029242,409.9949951,1.363226414,
408.9893799,1.37195158,408.9893799,1.371463418,408.9893799,1.370289445,
407.983551,1.3798666,407.983551,1.381925106,407.983551,1.381354213,
407.0162659,1.389590025,407.0162659,1.389005542,407.0162659,1.389158249,
406.0101624,1.399697304,406.0101624,1.398301721,406.0101624,1.398902297,
405.0038452,1.407254219,405.0038452,1.408196688,405.0038452,1.409290314,
403.997406,1.417750716,403.997406,1.418305755,403.997406,1.41701591,
402.9907227,1.427152395,402.9907227,1.427738905,402.9907227,1.427218676,
401.9839478,1.437529564,401.9839478,1.436337948,401.9839478,1.435706735,
401.0157471,1.447457075,401.0157471,1.446397781,401.0157471,1.446798921,
400.008606,1.457980156,400.008606,1.455435753,400.008606,1.45578301,
399.0013428,1.465144873,399.0013428,1.467665911,399.0013428,1.465845346,
397.9938965,1.475094795,397.9938965,1.474617243,397.9938965,1.476193666,
396.9862671,1.485954762,396.9862671,1.486448765,396.9862671,1.48488605,
396.0172729,1.495164156,396.0172729,1.495602131,396.0172729,1.496541142,
395.0093689,1.507825613,395.0093689,1.506666899,395.0093689,1.506892562,
394.0012817,1.518631458,394.0012817,1.518508434,394.0012817,1.518908858,
392.993042,1.528919697,392.993042,1.5293051,392.993042,1.529655099,
391.9846497,1.539910793,391.9846497,1.540414929,391.9846497,1.539524794,
391.0148926,1.550806403,391.0148926,1.550352573,391.0148926,1.549291015,
390.0061951,1.562976599,390.0061951,1.565055013,390.0061951,1.562191725,
388.9972839,1.576436758,388.9972839,1.573431373,388.9972839,1.573269844,
387.9882202,1.58409965,387.9882202,1.584028244,387.9882202,1.587055206,
387.0178833,1.594811797,387.0178833,1.59890759,387.0178833,1.594448924,
386.0085754,1.607503653,386.0085754,1.610539675,386.0085754,1.609400749,
384.999054,1.622253776,384.999054,1.621571541,384.999054,1.622936845,
383.9894104,1.630387783,383.9894104,1.633180857,383.9894104,1.631424308,
383.0184631,1.644015431,383.0184631,1.647795081,383.0184631,1.647310257,
382.0084839,1.655981779,382.0084839,1.655012965,382.0084839,1.654080629,
380.9983521,1.670096159,380.9983521,1.666180491,380.9983521,1.666129112,
379.9880676,1.684428811,379.9880676,1.679411888,379.9880676,1.678830385,
379.0165405,1.693452835,379.0165405,1.695171356,379.0165405,1.69479835,
378.0059509,1.706084967,378.0059509,1.706664085,378.0059509,1.705878258,
376.9952393,1.716488957,376.9952393,1.715282559,376.9952393,1.717483163,
375.984375,1.731723309,375.984375,1.727281332,375.984375,1.731719613,
375.012207,1.739775181,375.012207,1.744863987,375.012207,1.739588976,
374.0010376,1.760533094,374.0010376,1.755221963,374.0010376,1.757006764,
372.9896851,1.77237761,372.9896851,1.770712614,372.9896851,1.770038843,
372.0171204,1.782760024,372.0171204,1.779477358,372.0171204,1.782310128,
371.0055237,1.792890191,371.0055237,1.791861057,371.0055237,1.799147248,
369.9937134,1.810366631,369.9937134,1.810266852,369.9937134,1.807599664,
368.9818115,1.817942023,368.9818115,1.822392941,368.9818115,1.82885325,
368.0086365,1.843936563,368.0086365,1.840234637,368.0086365,1.841660857,
366.9964294,1.850586534,366.9964294,1.855948687,366.9964294,1.856455922,
365.9840393,1.861431837,365.9840393,1.872979403,365.9840393,1.869019628,
365.0104675,1.887464166,365.0104675,1.884939909,365.0104675,1.885501027,
363.9978333,1.895667076,363.9978333,1.895997763,363.9978333,1.894800305,
362.9850159,1.910456777,362.9850159,1.908780336,362.9850159,1.907519102,
362.0109863,1.929028153,362.0109863,1.926812291,362.0109863,1.930252075,
360.9979248,1.943387985,360.9979248,1.94157517,360.9979248,1.941375494,
359.9846497,1.955622554,359.9846497,1.958070874,359.9846497,1.955129504,
359.0102539,1.976994634,359.0102539,1.977367282,359.0102539,1.977749467,
357.9967346,1.990339518,357.9967346,1.985659599,357.9967346,1.982410073,
356.9830322,2.002753496,356.9830322,2.002114534,356.9830322,2.003200531,
356.0081787,2.015722513,356.0081787,2.018515348,356.0081787,2.014579535,
354.9942322,2.027312279,354.9942322,2.038367748,354.9942322,2.030152321,
354.019165,2.051158905,354.019165,2.05044055,354.019165,2.054596186,
353.0048828,2.068921089,353.0048828,2.06760025,353.0048828,2.06763792,
351.9904785,2.081646681,351.9904785,2.083696842,351.9904785,2.082563877,
351.0149536,2.099769592,351.0149536,2.097908735,351.0149536,2.097581148,
350.0003052,2.11681819,350.0003052,2.117435694,350.0003052,2.1097188,
348.9855042,2.143641233,348.9855042,2.135085106,348.9855042,2.141637325,
348.0095825,2.162403345,348.0095825,2.167381763,348.0095825,2.165593386,
346.9945068,2.175249338,346.9945068,2.184925556,346.9945068,2.179038286,
346.0183105,2.197366476,346.0183105,2.209862947,346.0183105,2.189044714,
345.0029297,2.21963501,345.0029297,2.215301514,345.0029297,2.219295979,
343.9874573,2.232078314,343.9874573,2.234484434,343.9874573,2.223876715,
343.0108643,2.248805523,343.0108643,2.265398264,343.0108643,2.25475049,
341.9950562,2.264748573,341.9950562,2.284520149,341.9950562,2.28006649,
341.018219,2.300277233,341.018219,2.292172194,341.018219,2.303325415,
340.0021667,2.314176321,340.0021667,2.326569319,340.0021667,2.324016571,
338.9859619,2.351304531,338.9859619,2.351032495,338.9859619,2.357197046,
338.008728,2.362230778,338.008728,2.346642971,338.008728,2.373500824,
336.9922485,2.399268627,336.9922485,2.385402203,336.9922485,2.388175964,
336.01474,2.40820837,336.01474,2.396537066,336.01474,2.416145802,
334.9980469,2.439829826,334.9980469,2.439474821,334.9980469,2.4497509,
333.9811401,2.458608627,333.9811401,2.462699413,333.9811401,2.468072653,
333.0032654,2.481545448,333.0032654,2.48947072,333.0032654,2.49529314,
331.986145,2.516323805,331.986145,2.515652657,331.986145,2.534074068,
331.0080261,2.522347927,331.0080261,2.527484417,331.0080261,2.529611111,
329.9906006,2.582449913,329.9906006,2.561413527,329.9906006,2.567235947,
329.012207,2.57371068,329.012207,2.588226557,329.012207,2.596197128,
327.9945374,2.618531227,327.9945374,2.648203135,327.9945374,2.61331439,
327.0158997,2.660834074,327.0158997,2.678994656,327.0158997,2.639537334,
325.9979858,2.67812562,325.9979858,2.668185711,325.9979858,2.655061007,
325.0190735,2.717090607,325.0190735,2.717940569,325.0190735,2.74459672,
324.000885,2.734562635,324.000885,2.758792639,324.000885,2.741502047,
322.9825745,2.777393341,322.9825745,2.808778763,322.9825745,2.825402737,
322.0032959,2.844400406,322.0032959,2.84224987,322.0032959,2.788186789,
320.9847107,2.818538666,320.9847107,2.842165947,320.9847107,2.84902215,
320.005188,2.886021852,320.005188,2.836210012,320.005188,2.899548054,
318.9863892,2.887327671,318.9863892,2.949425936,318.9863892,2.889166594,
318.0066223,2.948418617,318.0066223,2.959982872,318.0066223,2.972942591,
316.9875488,2.975078106,316.9875488,2.984373093,316.9875488,2.993632078,
316.0075073,2.988040924,316.0075073,2.950766802,316.0075073,2.964249849,
314.9881897,3.046263695,314.9881897,3.119242191,314.9881897,3.064091206,
314.0079651,3.087551355,314.0079651,3.092157364,314.0079651,3.155564785,
312.9883728,3.102863312,312.9883728,3.192228079,312.9883728,3.139660358,
312.0078735,3.11732173,312.0078735,3.127185822,312.0078735,3.109916687,
310.9880371,3.095419168,310.9880371,3.166686535,310.9880371,3.113381624,
310.0073242,3.191616297,310.0073242,3.177008867,310.0073242,3.171043873,
308.9872437,3.240457535,308.9872437,3.242469549,308.9872437,3.181724548,
308.0062561,3.25107336,308.0062561,3.24975872,308.0062561,3.232805252,
306.9859314,3.235881329,306.9859314,3.227735281,306.9859314,3.237112761,
306.0047302,3.487977505,306.0047302,3.443827868,306.0047302,3.3916924,
304.9841614,3.327658892,304.9841614,3.217654228,304.9841614,3.357262135,
304.0027466,3.363833904,304.0027466,3.375018597,304.0027466,3.327599049,
302.9819031,3.466061115,302.9819031,3.430503607,302.9819031,3.419093132,
302.0002441,3.43969059,302.0002441,3.404945374,302.0002441,3.414928675,
301.0184326,3.448202372,301.0184326,3.514866114,301.0184326,3.544831991,
299.9972839,3.540735722,299.9972839,3.587830544,299.9972839,3.499182463,

trial1,
trial1
Collection Time: 2/26/2025 3:29:18 PM
Operator Name  :
Scan Version 5.1.3.1042
Parameter List :
Instrument  Cary 60
Instrument Version  2.00
Start (nm)  800.0
Stop (nm)  300.0
X Mode  Nanometers
Y Mode  Abs
UV-Vis Scan Rate (nm/min)  600.00
UV-Vis Data Interval (nm)  1.00
UV-Vis Ave. Time (sec)  0.1000
Beam Mode  Dual Beam
Baseline Correction  Off
Cycle Mode  Off
Method Log     :
Method Name    :
Date/Time stamp: 2/26/2025 1:30:17 PM
Method Modifications:
UVVIS SAT Changed: 2/26/2025 1:32:06 PM, Old:0.0125, New:0.1000
Common SAT Changed: 2/26/2025 1:32:06 PM, Old:0.0125, New:0.1000
X Stop nm Changed: 2/26/2025 1:32:10 PM, Old:  200.0, New:  300.0
Common Interval nm Changed: 2/26/2025 1:32:10 PM, Old:     5.00, New:     1.00
UVVIS SAT Changed: 2/26/2025 2:56:33 PM, Old:0.1000, New:0.0125
Common SAT Changed: 2/26/2025 2:56:33 PM, Old:0.1000, New:0.0125
UVVIS SAT Changed: 2/26/2025 3:13:12 PM, Old:0.0125, New:0.1000
Common SAT Changed: 2/26/2025 3:13:12 PM, Old:0.0125, New:0.1000
UVVIS SAT Changed: 2/26/2025 3:16:38 PM, Old:0.1000, New:0.0125
Common SAT Changed: 2/26/2025 3:16:38 PM, Old:0.1000, New:0.0125
Common Interval nm Changed: 2/26/2025 3:16:39 PM, Old:     1.00, New:     2.00
UVVIS SAT Changed: 2/26/2025 3:21:30 PM, Old:0.0125, New:0.1000
Common SAT Changed: 2/26/2025 3:21:30 PM, Old:0.0125, New:0.1000
Common Interval nm Changed: 2/26/2025 3:21:32 PM, Old:     2.00, New:     1.00
UVVIS SAT Changed: 2/26/2025 3:26:42 PM, Old:0.1000, New:0.0125
Common SAT Changed: 2/26/2025 3:26:42 PM, Old:0.1000, New:0.0125
Common Interval nm Changed: 2/26/2025 3:26:44 PM, Old:     1.00, New:     2.00
UVVIS SAT Changed: 2/26/2025 3:28:41 PM, Old:0.0125, New:0.1000
Common SAT Changed: 2/26/2025 3:28:41 PM, Old:0.0125, New:0.1000
Common Interval nm Changed: 2/26/2025 3:28:48 PM, Old:     2.00, New:     1.00
End Method Modifications
<Current Wavelength> , 304.0

trial2,
trial2
Collection Time: 2/26/2025 3:30:36 PM
Operator Name  :
Scan Version 5.1.3.1042
Parameter List :
Instrument  Cary 60
Instrument Version  2.00
Start (nm)  800.0
Stop (nm)  300.0
X Mode  Nanometers
Y Mode  Abs
UV-Vis Scan Rate (nm/min)  600.00
UV-Vis Data Interval (nm)  1.00
UV-Vis Ave. Time (sec)  0.1000
Beam Mode  Dual Beam
Baseline Correction  Off
Cycle Mode  Off
Method Log     :
Method Name    :
Date/Time stamp: 2/26/2025 1:30:17 PM
Method Modifications:
UVVIS SAT Changed: 2/26/2025 1:32:06 PM, Old:0.0125, New:0.1000
Common SAT Changed: 2/26/2025 1:32:06 PM, Old:0.0125, New:0.1000
X Stop nm Changed: 2/26/2025 1:32:10 PM, Old:  200.0, New:  300.0
Common Interval nm Changed: 2/26/2025 1:32:10 PM, Old:     5.00, New:     1.00
UVVIS SAT Changed: 2/26/2025 2:56:33 PM, Old:0.1000, New:0.0125
Common SAT Changed: 2/26/2025 2:56:33 PM, Old:0.1000, New:0.0125
UVVIS SAT Changed: 2/26/2025 3:13:12 PM, Old:0.0125, New:0.1000
Common SAT Changed: 2/26/2025 3:13:12 PM, Old:0.0125, New:0.1000
UVVIS SAT Changed: 2/26/2025 3:16:38 PM, Old:0.1000, New:0.0125
Common SAT Changed: 2/26/2025 3:16:38 PM, Old:0.1000, New:0.0125
Common Interval nm Changed: 2/26/2025 3:16:39 PM, Old:     1.00, New:     2.00
UVVIS SAT Changed: 2/26/2025 3:21:30 PM, Old:0.0125, New:0.1000
Common SAT Changed: 2/26/2025 3:21:30 PM, Old:0.0125, New:0.1000
Common Interval nm Changed: 2/26/2025 3:21:32 PM, Old:     2.00, New:     1.00
UVVIS SAT Changed: 2/26/2025 3:26:42 PM, Old:0.1000, New:0.0125
Common SAT Changed: 2/26/2025 3:26:42 PM, Old:0.1000, New:0.0125
Common Interval nm Changed: 2/26/2025 3:26:44 PM, Old:     1.00, New:     2.00
UVVIS SAT Changed: 2/26/2025 3:28:41 PM, Old:0.0125, New:0.1000
Common SAT Changed: 2/26/2025 3:28:41 PM, Old:0.0125, New:0.1000
Common Interval nm Changed: 2/26/2025 3:28:48 PM, Old:     2.00, New:     1.00
End Method Modifications
<Current Wavelength> , 304.0

trial3,
trial3
Collection Time: 2/26/2025 3:31:30 PM
Operator Name  :
Scan Version 5.1.3.1042
Parameter List :
Instrument  Cary 60
Instrument Version  2.00
Start (nm)  800.0
Stop (nm)  300.0
X Mode  Nanometers
Y Mode  Abs
UV-Vis Scan Rate (nm/min)  600.00
UV-Vis Data Interval (nm)  1.00
UV-Vis Ave. Time (sec)  0.1000
Beam Mode  Dual Beam
Baseline Correction  Off
Cycle Mode  Off
Method Log     :
Method Name    :
Date/Time stamp: 2/26/2025 1:30:17 PM
Method Modifications:
UVVIS SAT Changed: 2/26/2025 1:32:06 PM, Old:0.0125, New:0.1000
Common SAT Changed: 2/26/2025 1:32:06 PM, Old:0.0125, New:0.1000
X Stop nm Changed: 2/26/2025 1:32:10 PM, Old:  200.0, New:  300.0
Common Interval nm Changed: 2/26/2025 1:32:10 PM, Old:     5.00, New:     1.00
UVVIS SAT Changed: 2/26/2025 2:56:33 PM, Old:0.1000, New:0.0125
Common SAT Changed: 2/26/2025 2:56:33 PM, Old:0.1000, New:0.0125
UVVIS SAT Changed: 2/26/2025 3:13:12 PM, Old:0.0125, New:0.1000
Common SAT Changed: 2/26/2025 3:13:12 PM, Old:0.0125, New:0.1000
UVVIS SAT Changed: 2/26/2025 3:16:38 PM, Old:0.1000, New:0.0125
Common SAT Changed: 2/26/2025 3:16:38 PM, Old:0.1000, New:0.0125
Common Interval nm Changed: 2/26/2025 3:16:39 PM, Old:     1.00, New:     2.00
UVVIS SAT Changed: 2/26/2025 3:21:30 PM, Old:0.0125, New:0.1000
Common SAT Changed: 2/26/2025 3:21:30 PM, Old:0.0125, New:0.1000
Common Interval nm Changed: 2/26/2025 3:21:32 PM, Old:     2.00, New:     1.00
UVVIS SAT Changed: 2/26/2025 3:26:42 PM, Old:0.1000, New:0.0125
Common SAT Changed: 2/26/2025 3:26:42 PM, Old:0.1000, New:0.0125
Common Interval nm Changed: 2/26/2025 3:26:44 PM, Old:     1.00, New:     2.00
UVVIS SAT Changed: 2/26/2025 3:28:41 PM, Old:0.0125, New:0.1000
Common SAT Changed: 2/26/2025 3:28:41 PM, Old:0.0125, New:0.1000
Common Interval nm Changed: 2/26/2025 3:28:48 PM, Old:     2.00, New:     1.00
End Method Modifications
<Current Wavelength> , 304.0

