trial1,,trial2,,trial3,,
Wavelength (nm),Abs,Wavelength (nm),Abs,Wavelength (nm),Abs,
799.9968262,0.01597192697,799.9968262,0.01498727966,799.9968262,0.01489061397,
798.9871826,0.01559731737,798.9871826,0.01575836912,798.9871826,0.01587007567,
798.0119019,0.01542240474,798.0119019,0.01540298667,798.0119019,0.01557461824,
797.0014038,0.01513636485,797.0014038,0.01565640606,797.0014038,0.01556283887,
795.9905396,0.0152682336,795.9905396,0.01585181803,795.9905396,0.01509787608,
795.0140991,0.01524193212,795.0140991,0.01586535014,795.0140991,0.01510870364,
794.0025024,0.01559307799,794.0025024,0.01619706303,794.0025024,0.01582741365,
792.9903564,0.01522817835,792.9903564,0.01509272959,792.9903564,0.01493921224,
792.0128784,0.01542806439,792.0128784,0.01548098773,792.0128784,0.01540218201,
790.999939,0.01496147644,790.999939,0.01596972533,790.999939,0.01515354682,
789.9866333,0.01457282621,789.9866333,0.01571931504,789.9866333,0.01512902044,
789.0079956,0.01477541029,789.0079956,0.01563150436,789.0079956,0.01542742085,
787.9938965,0.01456982829,787.9938965,0.01550628431,787.9938965,0.0147204306,
787.0144653,0.01481092442,787.0144653,0.01549354196,787.0144653,0.01501310989,
785.9996338,0.01439728215,785.9996338,0.01485238783,785.9996338,0.01486128103,
784.984375,0.01503947843,784.984375,0.01521163713,784.984375,0.01519839372,
784.0037842,0.01542219054,784.0037842,0.01502902806,784.0037842,0.01470013335,
782.9877319,0.01428448316,782.9877319,0.01468832511,782.9877319,0.01451971941,
782.0064087,0.01493438985,782.0064087,0.01509530284,782.0064087,0.01516962983,
780.989563,0.01462992933,780.989563,0.01489562355,780.989563,0.01493961364,
780.0075684,0.01375141088,780.0075684,0.01469327789,780.0075684,0.01401392184,
778.9899292,0.01428335905,778.9899292,0.01493880991,778.9899292,0.01506338362,
778.0071411,0.01485426351,778.0071411,0.01448222157,778.0071411,0.0143383909,
776.9887695,0.01459349319,776.9887695,0.01495472435,776.9887695,0.01463330258,
776.005188,0.0147682596,776.005188,0.01481612027,776.005188,0.01526582055,
774.9860229,0.01436212286,774.9860229,0.0145631358,774.9860229,0.01452416275,
774.001709,0.01455997769,774.001709,0.0146401301,774.001709,0.01417155284,
773.0169678,0.0148630226,773.0169678,0.01510937419,773.0169678,0.01487092488,
771.9967041,0.01470013335,771.9967041,0.01444705576,771.9967041,0.01487456821,
771.0112305,0.01505043916,771.0112305,0.01525525749,771.0112305,0.01510438882,
769.9902344,0.01482597739,769.9902344,0.01480291598,769.9902344,0.0150218457,
769.0039673,0.01558408979,769.0039673,0.01581232622,769.0039673,0.0150172906,
768.0174561,0.01550008729,768.0174561,0.01555173192,768.0174561,0.01562307775,
766.9953003,0.01572237536,766.9953003,0.01611305028,766.9953003,0.0157583151,
766.0079346,0.01622498222,766.0079346,0.01636774652,766.0079346,0.01636962779,
764.9850464,0.01683829539,764.9850464,0.0170109272,764.9850464,0.01681652665,
763.9970093,0.01649522968,763.9970093,0.01682037488,763.9970093,0.01665645465,
763.008667,0.01656320877,763.008667,0.01755367778,763.008667,0.01689079963,
761.9845581,0.01669532433,761.9845581,0.01712379046,761.9845581,0.01674748585,
760.9954224,0.01734400168,760.9954224,0.01692979783,760.9954224,0.01700233854,
760.0059814,0.0167455487,760.0059814,0.01638373919,760.0059814,0.0168675743,
759.0161133,0.01609118283,759.0161133,0.01628294773,759.0161133,0.01589066908,
757.9904785,0.01551532559,757.9904785,0.01550384331,757.9904785,0.01578907855,
757,0.0152354436,757,0.01564645022,757,0.01530840062,
756.0089722,0.01530660409,756.0089722,0.01465316862,756.0089722,0.01502168551,
754.9822998,0.01478199847,754.9822998,0.01473893505,754.9822998,0.01491440367,
753.9906616,0.01427067909,753.9906616,0.01428833511,753.9906616,0.01439061947,
752.9986572,0.01429039519,752.9986572,0.01431725454,752.9986572,0.01378652081,
752.0062866,0.01432988234,752.0062866,0.0144640496,752.0062866,0.01404865179,
751.0135498,0.01407707389,751.0135498,0.01437049732,751.0135498,0.01419377793,
749.9849854,0.01357366145,749.9849854,0.01356626302,749.9849854,0.01401475072,
748.9915771,0.01344094332,748.9915771,0.01375269331,748.9915771,0.0138200298,
747.9978027,0.01306368131,747.9978027,0.01360712759,747.9978027,0.01355085336,
747.0036621,0.0132212881,747.0036621,0.01311498322,747.0036621,0.01327327546,
746.0090942,0.01226452366,746.0090942,0.01241491456,746.0090942,0.01261401549,
745.0142822,0.01209608465,745.0142822,0.01217261516,745.0142822,0.01236851607,
743.9835205,0.01146377716,743.9835205,0.01193077117,743.9835205,0.01170456409,
742.987915,0.0108405631,742.987915,0.01087565068,742.987915,0.01075826958,
741.9920654,0.009974093176,741.9920654,0.0099051781,741.9920654,0.009867176414,
740.9957886,0.008740345016,740.9957886,0.008684935048,740.9957886,0.008918240666,
739.9992065,0.008216721006,739.9992065,0.008344737813,739.9992065,0.008304049261,
739.0021973,0.00707668718,739.0021973,0.007232109085,739.0021973,0.007326610386,
738.0048828,0.006776474416,738.0048828,0.006711850874,738.0048828,0.006308211014,
737.0072021,0.005986797623,737.0072021,0.00574598508,737.0072021,0.006099010818,
736.0091553,0.005478094798,736.0091553,0.005298431031,736.0091553,0.005265966058,
735.0108032,0.00484793447,735.0108032,0.004469220527,735.0108032,0.004607595969,
734.012085,0.004204390105,734.012085,0.0041546789,734.012085,0.004117333796,
733.0130615,0.003608021885,733.0130615,0.003463023808,733.0130615,0.003683149582,
732.0136719,0.003065805882,732.0136719,0.003208715701,732.0136719,0.003337585833,
731.013916,0.002494715387,731.013916,0.002482296899,731.013916,0.002494012471,
730.0137939,0.002205275698,730.0137939,0.002384314546,730.0137939,0.002381867962,
729.0133057,0.001574101625,729.0133057,0.00168783078,729.0133057,0.001882021315,
728.0125732,0.001221956103,728.0125732,0.00135278271,728.0125732,0.001607045415,
727.0114746,0.001339332201,727.0114746,0.001336657675,727.0114746,0.001481440966,
726.0100098,0.001171572832,726.0100098,0.001168951276,726.0100098,0.001134561258,
725.0081787,0.0008944523288,725.0081787,0.0010437069,725.0081787,0.001190079725,
724.0060425,0.000717037532,724.0060425,0.0008631965611,724.0060425,0.0007662790013,
723.00354,0.0009307170403,723.00354,0.0008885900606,723.00354,0.001007847954,
722.0007935,0.0007055253373,722.0007935,0.0007163893315,722.0007935,0.0009807869792,
720.9975586,0.0008623146568,720.9975586,0.0009256065823,720.9975586,0.0010055647,
719.9940186,0.001432819641,719.9940186,0.001529340399,719.9940186,0.001564878854,
718.9901733,0.001412744052,718.9901733,0.001247837907,718.9901733,0.00135592476,
717.9859009,0.002015127568,717.9859009,0.001982880756,717.9859009,0.002167707542,
717.017334,0.002077469137,717.017334,0.002160631353,717.017334,0.00230025081,
716.0124512,0.002850474324,716.0124512,0.002762699267,716.0124512,0.002911919728,
715.0072632,0.003312022658,715.0072632,0.00345924031,715.0072632,0.003389499383,
714.00177,0.003700040746,714.00177,0.003803934902,714.00177,0.003820752492,
712.9958496,0.004697838333,712.9958496,0.004725602921,712.9958496,0.004779488314,
711.989624,0.005133771803,711.989624,0.005136103369,711.989624,0.005258655641,
710.9831543,0.005912844557,710.9831543,0.006135371048,710.9831543,0.006172601599,
710.012207,0.00666495366,710.012207,0.006852178834,710.012207,0.006797772367,
709.0049438,0.007558686659,709.0049438,0.007467847783,709.0049438,0.007598646916,
707.9973755,0.00836838223,707.9973755,0.008524822071,707.9973755,0.008621426299,
706.989563,0.008907037787,706.989563,0.008841990493,706.989563,0.009101682343,
706.017395,0.01030093711,706.017395,0.01027305238,706.017395,0.01011487003,
705.0088501,0.01083225664,705.0088501,0.01084680017,705.0088501,0.01091329008,
704,0.01163888443,704,0.01174929645,704,0.01173235476,
702.9907837,0.01276018284,702.9907837,0.01273922995,702.9907837,0.01278756093,
702.017334,0.01320492942,702.017334,0.01329572219,702.017334,0.01328966301,
701.0074463,0.01443145424,701.0074463,0.0141386576,701.0074463,0.01433483232,
699.9973145,0.01533795148,699.9973145,0.01531419251,699.9973145,0.01536557358,
698.9868164,0.01555465627,698.9868164,0.01562882029,698.9868164,0.01556018274,
698.012085,0.01622353122,698.012085,0.01638080925,698.012085,0.01642887481,
697.0009155,0.01712023653,697.0009155,0.0172528699,697.0009155,0.01742962748,
695.9894409,0.01830293424,695.9894409,0.01831262745,695.9894409,0.01797446609,
695.0137939,0.01862178929,695.0137939,0.01865586266,695.0137939,0.01876647957,
694.0016479,0.01955327764,694.0016479,0.01946579665,694.0016479,0.01962999627,
692.9891968,0.02048231661,692.9891968,0.02025489509,692.9891968,0.02036914788,
692.0125732,0.02059755102,692.0125732,0.02074325457,692.0125732,0.02093553543,
690.9995117,0.02150900103,690.9995117,0.02164600231,690.9995117,0.02174287848,
689.986084,0.02225100622,689.986084,0.02226481959,689.986084,0.02227471024,
689.0085449,0.02285666019,689.0085449,0.02237962931,689.0085449,0.02268635482,
687.9944458,0.02310944535,687.9944458,0.02311220393,687.9944458,0.0231568981,
687.0162964,0.02384213172,687.0162964,0.02362704836,687.0162964,0.02398282662,
686.0015869,0.02421283908,686.0015869,0.02404635213,686.0015869,0.02433731034,
684.9865723,0.024734281,684.9865723,0.02485114336,684.9865723,0.02474357001,
684.0074463,0.025236018,684.0074463,0.02551726066,684.0074463,0.02533457428,
682.9918823,0.02578898706,682.9918823,0.02612300962,682.9918823,0.02584390342,
682.012146,0.02599767037,682.012146,0.02617400885,682.012146,0.02614502981,
680.9958496,0.02636777423,680.9958496,0.02659198083,680.9958496,0.02669866383,
680.015625,0.02666208148,680.015625,0.02703985944,680.015625,0.02672985382,
678.9985962,0.02717867307,678.9985962,0.02712292783,678.9985962,0.02723202854,
678.0177612,0.02791881561,678.0177612,0.02784917504,678.0177612,0.02773889713,
677.0001221,0.02795014717,677.0001221,0.02806219086,677.0001221,0.02811634354,
675.9822998,0.02856121026,675.9822998,0.02858733572,675.9822998,0.02872999199,
675.0004883,0.02902557142,675.0004883,0.02935998887,675.0004883,0.02910450846,
673.9819946,0.0295257289,673.9819946,0.02958896011,673.9819946,0.02929332852,
672.9995728,0.02998835035,672.9995728,0.02979235165,672.9995728,0.0297582522,
672.0168457,0.03007966839,672.0168457,0.03003794514,672.0168457,0.03032223321,
670.9974365,0.03051108308,670.9974365,0.03071304597,670.9974365,0.03048414737,
670.0140991,0.03109172545,670.0140991,0.03092694283,670.0140991,0.03095348924,
668.9940796,0.03120516427,668.9940796,0.03126580268,668.9940796,0.03115729801,
668.0101318,0.03110576794,668.0101318,0.03077472746,668.0101318,0.03104445525,
666.9894409,0.03083661385,666.9894409,0.03094528988,666.9894409,0.03062684275,
666.0049438,0.03077856265,666.0049438,0.03031107411,666.0049438,0.0307288263,
664.9836426,0.03077436611,664.9836426,0.03080951795,664.9836426,0.03088269383,
663.9985962,0.03059306741,663.9985962,0.0308944229,663.9985962,0.03075255454,
663.0131836,0.03055712767,663.0131836,0.03071048856,663.0131836,0.03056509979,
661.9909058,0.03099143505,661.9909058,0.03079492971,661.9909058,0.03071762994,
661.0050049,0.03100049868,661.0050049,0.03074305132,661.0050049,0.03100175038,
659.9821777,0.0308440607,659.9821777,0.03073835559,659.9821777,0.03082613647,
658.9955444,0.03078939952,658.9955444,0.03068937548,658.9955444,0.03073093854,
658.008728,0.03091843799,658.008728,0.03090520576,658.008728,0.0308507029,
656.9849854,0.0311000105,656.9849854,0.03112401068,656.9849854,0.03112537228,
655.9974976,0.0311282929,655.9974976,0.03135583177,655.9974976,0.03093900718,
655.0097656,0.03124399483,655.0097656,0.03135995194,655.0097656,0.0313222222,
653.9851074,0.03158096224,653.9851074,0.03152002767,653.9851074,0.03135950491,
652.9967651,0.03173913807,652.9967651,0.03159463033,652.9967651,0.03162622824,
652.0081787,0.03186224774,652.0081787,0.03211074322,652.0081787,0.03164863959,
650.982605,0.03170666844,650.982605,0.03195407242,650.982605,0.03210597858,
649.9934082,0.03201086074,649.9934082,0.0323144272,649.9934082,0.03221419081,
649.0039673,0.03232549876,649.0039673,0.03217228875,649.0039673,0.03230873868,
648.0141602,0.03222559392,648.0141602,0.03228944167,648.0141602,0.03236958757,
646.9874268,0.03229203448,646.9874268,0.03223337233,646.9874268,0.03252529353,
645.9971313,0.03241853788,645.9971313,0.03238060325,645.9971313,0.03239167854,
645.0064697,0.03250475973,645.0064697,0.03245981783,645.0064697,0.03262108192,
644.015564,0.03266933188,644.015564,0.03229479492,644.015564,0.03221867979,
642.9876099,0.03275990486,642.9876099,0.03242966533,642.9876099,0.03272947669,
641.9960938,0.03272799775,641.9960938,0.03260068223,641.9960938,0.03267522156,
641.0043945,0.03290273622,641.0043945,0.03280643746,641.0043945,0.03285423666,
640.0123291,0.03302488849,640.0123291,0.03283407912,640.0123291,0.0329721868,
638.9831543,0.03283591941,638.9831543,0.03317376226,638.9831543,0.03305874392,
637.9906006,0.03326091543,637.9906006,0.03280680254,637.9906006,0.03332027793,
636.9976196,0.03335328773,636.9976196,0.0334242098,636.9976196,0.03340072557,
636.0044556,0.03326524794,636.0044556,0.03349346295,636.0044556,0.03321953118,
635.0110474,0.03351191804,635.0110474,0.03340522945,635.0110474,0.03351317719,
634.0172729,0.03352662921,634.0172729,0.03350232914,634.0172729,0.03362039849,
632.9864502,0.03368546069,632.9864502,0.03345515952,632.9864502,0.03353650123,
631.9921265,0.03365888819,631.9921265,0.03359027952,631.9921265,0.03354989365,
630.9975586,0.03361698613,630.9975586,0.0333010219,630.9975586,0.03378086165,
630.0026245,0.03370495886,630.0026245,0.03351194784,630.0026245,0.03389248997,
629.0075073,0.03366148844,629.0075073,0.03354033083,629.0075073,0.03370272368,
628.012085,0.03386520222,628.012085,0.03392103687,628.012085,0.03378645703,
627.0163574,0.03364691511,627.0163574,0.03363049775,627.0163574,0.03354296088,
625.9835205,0.03376813233,625.9835205,0.03382566199,625.9835205,0.03378142044,
624.9873047,0.03379938379,624.9873047,0.03379487991,624.9873047,0.03395322338,
623.9907227,0.03411072865,623.9907227,0.03385171294,623.9907227,0.03386648744,
622.9939575,0.03424170986,622.9939575,0.03399703279,622.9939575,0.0340301767,
621.9968872,0.03429283202,621.9968872,0.03386858851,621.9968872,0.03393402323,
620.9995117,0.03440304846,620.9995117,0.0340908505,620.9995117,0.0339528881,
620.0018921,0.03414724395,620.0018921,0.03402410448,620.0018921,0.03408771381,
619.0040283,0.03445295617,619.0040283,0.03407785669,619.0040283,0.03423672542,
618.0058594,0.03454465419,618.0058594,0.0341950506,618.0058594,0.03440316021,
617.0073853,0.03439010307,617.0073853,0.03428456932,617.0073853,0.03449656069,
616.008728,0.03448422998,616.008728,0.03446175531,616.008728,0.0345011279,
615.0097656,0.03456993774,615.0097656,0.03462678939,615.0097656,0.03473372385,
614.010498,0.03447388858,614.010498,0.03477926552,614.010498,0.03462662175,
613.0109863,0.0345865339,613.0109863,0.03443076089,613.0109863,0.03484489396,
612.0112305,0.0348217003,612.0112305,0.03453265876,612.0112305,0.03468420729,
611.0111084,0.03490621224,611.0111084,0.03503611684,611.0111084,0.03497651964,
610.0108032,0.03464744985,610.0108032,0.03468246758,610.0108032,0.03489872441,
609.0101929,0.03488074243,609.0101929,0.03459295258,609.0101929,0.03461728618,
608.0093384,0.03489448875,608.0093384,0.03489336744,608.0093384,0.03502365574,
607.0082397,0.03501650319,607.0082397,0.03488495201,607.0082397,0.03501742706,
606.0068359,0.03524056077,606.0068359,0.0351071991,606.0068359,0.03533680737,
605.005188,0.03505516797,605.005188,0.03487813473,605.005188,0.03505503014,
604.0032959,0.03511839733,604.0032959,0.03493303433,604.0032959,0.03512308374,
603.0010986,0.03514952585,603.0010986,0.03491836041,603.0010986,0.0351627171,
601.9985962,0.03525827453,601.9985962,0.03507958353,601.9985962,0.03502525762,
600.9959106,0.03542265669,600.9959106,0.03544032201,600.9959106,0.03521557525,
599.9929199,0.03544843942,599.9929199,0.03540768847,599.9929199,0.03547714651,
598.989624,0.03549394384,598.989624,0.0353964828,598.989624,0.03568182513,
597.9862061,0.03547860682,597.9862061,0.03539887071,597.9862061,0.03561421856,
596.9824219,0.03528489172,596.9824219,0.03538168222,596.9824219,0.03549324349,
596.015625,0.0353862308,596.015625,0.03540802374,596.015625,0.035432823,
595.0112305,0.03541015834,595.0112305,0.03536828607,595.0112305,0.03572176024,
594.0067139,0.03536713496,594.0067139,0.03547689319,594.0067139,0.03556561098,
593.0019531,0.0357179977,593.0019531,0.0357179977,593.0019531,0.03571560606,
591.9969482,0.03582123667,591.9969482,0.03553026915,591.9969482,0.03596648574,
590.9915771,0.03577221185,590.9915771,0.03590080142,590.9915771,0.0358386375,
589.9859619,0.03601544723,589.9859619,0.03586396948,589.9859619,0.03599983826,
589.017395,0.03593454137,589.017395,0.03594969958,589.017395,0.03616053611,
588.0112915,0.03613648191,588.0112915,0.03607760742,588.0112915,0.03627347946,
587.0048828,0.03613386676,587.0048828,0.0362033844,587.0048828,0.03604098409,
585.9983521,0.03625172749,585.9983521,0.03630862758,585.9983521,0.03657052293,
584.9914551,0.03647653386,584.9914551,0.03671238944,584.9914551,0.03664380312,
583.984375,0.03684968129,583.984375,0.03691367805,583.984375,0.0367408134,
583.0143433,0.03713361174,583.0143433,0.0370792523,583.0143433,0.03729811683,
582.0066528,0.03744481876,582.0066528,0.03733289614,582.0066528,0.03751045465,
580.9987793,0.03755036369,580.9987793,0.03760562837,580.9987793,0.03765330836,
579.9907227,0.0379855372,579.9907227,0.03806905821,579.9907227,0.03811712563,
578.9822388,0.03869108111,578.9822388,0.03860979155,578.9822388,0.03863607347,
578.0109863,0.0390298292,578.0109863,0.03925355896,578.0109863,0.03903761506,
577.0021362,0.03980121389,577.0021362,0.03977148607,577.0021362,0.03973018005,
575.992981,0.04035490379,575.992981,0.04047397152,575.992981,0.04049624875,
574.9835815,0.04121764749,574.9835815,0.04129119962,574.9835815,0.04144116864,
574.0114136,0.04236862436,574.0114136,0.04229174554,574.0114136,0.04242518917,
573.0014648,0.04357216507,573.0014648,0.0435634926,573.0014648,0.04373611882,
571.991333,0.04507835582,571.991333,0.04498038068,571.991333,0.04513484612,
571.0183105,0.04671573639,571.0183105,0.04671097919,571.0183105,0.04667944461,
570.0077515,0.04857235774,570.0077515,0.04876187071,570.0077515,0.04883054271,
568.9967651,0.0508915782,568.9967651,0.05089856312,568.9967651,0.05092246085,
567.9857178,0.05347590894,567.9857178,0.05370884761,567.9857178,0.05360225961,
567.0117798,0.05654165149,567.0117798,0.05643197894,567.0117798,0.05674367398,
566.0001831,0.06006516144,566.0001831,0.05999466032,566.0001831,0.06019704416,
564.9882813,0.06409940124,564.9882813,0.06413879991,564.9882813,0.06404954195,
564.0136719,0.06840921938,564.0136719,0.06848467886,564.0136719,0.06850665063,
563.0013428,0.07311754674,563.0013428,0.07337744534,563.0013428,0.07329635322,
561.9887695,0.07886943221,561.9887695,0.0789116174,561.9887695,0.07902165502,
561.0134277,0.08496290445,561.0134277,0.08503137529,561.0134277,0.08514350653,
560.0003052,0.09258981049,560.0003052,0.0925995186,560.0003052,0.09264459461,
558.9869385,0.09986840934,558.9869385,0.1001807228,558.9869385,0.1001753062,
558.0109253,0.1075706184,558.0109253,0.1076478884,558.0109253,0.1075598076,
556.9971313,0.1161735058,556.9971313,0.116070725,556.9971313,0.1161428317,
555.9830933,0.1257276237,555.9830933,0.1257816106,555.9830933,0.1257224381,
555.0063477,0.1357827485,555.0063477,0.1359764636,555.0063477,0.1360176504,
553.9918213,0.1473290175,553.9918213,0.1472530067,553.9918213,0.1472163051,
553.0146484,0.1569931507,553.0146484,0.1571721435,553.0146484,0.1569125503,
551.9995728,0.1682000607,551.9995728,0.1683330834,551.9995728,0.1681841612,
550.984375,0.18039608,550.984375,0.1803536564,550.984375,0.1801738292,
550.0064697,0.1924314946,550.0064697,0.192604363,550.0064697,0.1926651597,
548.9907837,0.205770582,548.9907837,0.2060537636,548.9907837,0.2057852149,
548.0124512,0.2192322314,548.0124512,0.2194325328,548.0124512,0.2192299515,
546.9962158,0.231400609,546.9962158,0.231564343,546.9962158,0.2314096093,
546.017395,0.2434178591,546.017395,0.2434457392,546.017395,0.2432107031,
545.0007324,0.2569440305,545.0007324,0.2574166656,545.0007324,0.2569442987,
543.9838867,0.2693328857,543.9838867,0.2697744966,543.9838867,0.2695378661,
543.0043945,0.2825804353,543.0043945,0.2826763093,543.0043945,0.2824802995,
541.9870605,0.2943364382,541.9870605,0.2947430313,541.9870605,0.2944434583,
541.0071411,0.3043201268,541.0071411,0.3046239018,541.0071411,0.3043655753,
539.9892578,0.3160145283,539.9892578,0.3163078427,539.9892578,0.3159686923,
539.0089111,0.3264075816,539.0089111,0.3268425167,539.0089111,0.3264789879,
537.9905396,0.3372940123,537.9905396,0.3375757337,537.9905396,0.3373513818,
537.0097656,0.3463028371,537.0097656,0.3465745449,537.0097656,0.3463340104,
535.9909058,0.3558681607,535.9909058,0.3561077714,535.9909058,0.3558155894,
535.0097046,0.3646171391,535.0097046,0.364861995,535.0097046,0.3642939031,
533.9904785,0.3708886504,533.9904785,0.3711644113,533.9904785,0.3709328771,
533.008728,0.3772428632,533.008728,0.3775461018,533.008728,0.3771858811,
531.9890747,0.3848569095,531.9890747,0.3851665258,531.9890747,0.3849569261,
531.006958,0.3916181326,531.006958,0.3919743299,531.006958,0.3916207254,
529.9867554,0.3977371454,529.9867554,0.3981284797,529.9867554,0.3977741599,
529.0042114,0.401358068,529.0042114,0.4015060663,529.0042114,0.4012765884,
527.9835205,0.4060862958,527.9835205,0.4061579704,527.9835205,0.4059151113,
527.0005493,0.4107449651,527.0005493,0.4111287594,527.0005493,0.4107564688,
526.017334,0.4149319232,526.017334,0.4150186479,526.017334,0.4146572053,
524.9959717,0.4187010527,524.9959717,0.4191094637,524.9959717,0.4185735583,
524.0123291,0.4222379327,524.0123291,0.4226117432,524.0123291,0.4223945439,
522.9906006,0.4257223606,522.9906006,0.4258952439,522.9906006,0.4255099595,
522.0065308,0.4287987649,522.0065308,0.4286074042,522.0065308,0.4286566079,
520.984314,0.4315993488,520.984314,0.43214342,520.984314,0.4317345321,
519.9998169,0.4346097112,519.9998169,0.4348452389,519.9998169,0.4345282912,
519.0150146,0.436827749,519.0150146,0.4368616045,519.0150146,0.4367892146,
517.9921265,0.4389221966,517.9921265,0.4390679598,517.9921265,0.4386324584,
517.006958,0.4410270751,517.006958,0.4412359297,517.006958,0.4410739839,
515.9836426,0.4432248473,515.9836426,0.4432037771,515.9836426,0.443189472,
514.9980469,0.4446704388,514.9980469,0.4449252784,514.9980469,0.4447176456,
514.0122681,0.4467985928,514.0122681,0.446585834,514.0122681,0.4463517666,
512.9882813,0.4482321739,512.9882813,0.4482362866,512.9882813,0.4479036033,
512.0020752,0.4494468868,512.0020752,0.4497508705,512.0020752,0.4495202303,
511.015625,0.4509776831,511.015625,0.4509061575,511.015625,0.4508823752,
509.9909363,0.4522441328,509.9909363,0.4522145987,509.9909363,0.4521247447,
509.0040894,0.4534292221,509.0040894,0.4536194205,509.0040894,0.4535330832,
508.0169983,0.4547048509,508.0169983,0.4547404647,508.0169983,0.4549780488,
506.9917297,0.4563770592,506.9917297,0.4561290741,506.9917297,0.4559226036,
506.0042419,0.4571804702,506.0042419,0.4573827386,506.0042419,0.4573267102,
505.0164795,0.4580844939,505.0164795,0.4584006369,505.0164795,0.4583812952,
503.9906006,0.4592403471,503.9906006,0.4594923854,503.9906006,0.4591296315,
503.0025024,0.4606669247,503.0025024,0.4604876339,503.0025024,0.4604734182,
502.0140991,0.4618062377,502.0140991,0.4618931115,502.0140991,0.4616410434,
500.9876099,0.4625293016,500.9876099,0.4628722668,500.9876099,0.4624411166,
499.9988708,0.4633383155,499.9988708,0.4635012448,499.9988708,0.4632893503,
499.0098267,0.4641131163,499.0098267,0.4645132124,499.0098267,0.464074105,
497.982666,0.4652625024,497.982666,0.4652315974,497.982666,0.4651694,
496.9932556,0.4658620059,496.9932556,0.4659870267,496.9932556,0.4657345116,
496.0036621,0.4664905369,496.0036621,0.4665827155,496.0036621,0.4665422738,
495.013916,0.4673146904,495.013916,0.4674078822,495.013916,0.4673151672,
493.9858704,0.4681779444,493.9858704,0.4681808949,493.9858704,0.4681247771,
492.9956665,0.4687599838,492.9956665,0.4689124823,492.9956665,0.4686392546,
492.0053406,0.4688646495,492.0053406,0.4688519835,492.0053406,0.4688200951,
491.0147095,0.4696941972,491.0147095,0.4698214233,491.0147095,0.4696680903,
489.9858398,0.470629245,489.9858398,0.4707178473,489.9858398,0.4704943001,
488.9948425,0.4712340534,488.9948425,0.4713984132,488.9948425,0.4711915255,
488.0036316,0.4717949331,488.0036316,0.4718099833,488.0036316,0.4716544747,
487.0122681,0.4727487564,487.0122681,0.4726655781,487.0122681,0.4725367129,
485.9824829,0.4741931558,485.9824829,0.4744469523,485.9824829,0.4740567207,
484.9906921,0.4751673341,484.9906921,0.4752747416,484.9906921,0.4749864042,
483.9986877,0.4759857655,483.9986877,0.4759899974,483.9986877,0.4758118391,
483.0065613,0.4775272012,483.0065613,0.4775263667,483.0065613,0.4774576724,
482.0141296,0.4793300033,482.0141296,0.4794386625,482.0141296,0.4791966975,
480.983429,0.4817307293,480.983429,0.4816328287,480.983429,0.4813346863,
479.9906616,0.4837616384,479.9906616,0.4840141237,479.9906616,0.4837441146,
478.9976501,0.486236304,478.9976501,0.4863279462,478.9976501,0.4859421253,
478.0044861,0.4888174534,478.0044861,0.4885275066,478.0044861,0.4885059297,
477.0111389,0.4912057221,477.0111389,0.4912191033,477.0111389,0.4913004041,
476.0175476,0.4942472577,476.0175476,0.4941190779,476.0175476,0.4939531982,
474.9855652,0.4974751472,474.9855652,0.4971657991,474.9855652,0.4974429905,
473.9916382,0.5008987784,473.9916382,0.5005764365,473.9916382,0.5007395148,
472.997467,0.5041875839,472.997467,0.5039165616,472.997467,0.5037406683,
472.0031433,0.5070897341,472.0031433,0.5071955323,472.0031433,0.5069540739,
471.0086365,0.5104663372,471.0086365,0.5102621913,471.0086365,0.5101783872,
470.0138245,0.5140148997,470.0138245,0.5138699412,470.0138245,0.5135650039,
469.0189514,0.5180354118,469.0189514,0.5179260373,469.0189514,0.5178921223,
467.9855957,0.5219962001,467.9855957,0.5219097733,467.9855957,0.5215958357,
466.9902344,0.5257458091,466.9902344,0.5256872177,466.9902344,0.5254624486,
465.994751,0.529810667,465.994751,0.5293852091,465.994751,0.5290880203,
464.9990845,0.5337213278,464.9990845,0.5334226489,464.9990845,0.5329774618,
464.0032043,0.5382038951,464.0032043,0.5381293893,464.0032043,0.5378277302,
463.0071411,0.5431457162,463.0071411,0.5426229835,463.0071411,0.5423493981,
462.0108643,0.5474484563,462.0108643,0.5472539663,462.0108643,0.5469028354,
461.0144653,0.5514922142,461.0144653,0.551490128,461.0144653,0.5509232283,
460.0178223,0.5555603504,460.0178223,0.5555152297,460.0178223,0.5554457307,
458.9826965,0.5615754128,458.9826965,0.5614070892,458.9826965,0.5608249903,
457.9856873,0.5675986409,457.9856873,0.567494154,457.9856873,0.56683743,
456.9884644,0.5728110075,456.9884644,0.5726519227,456.9884644,0.5724073648,
455.9910889,0.577725172,455.9910889,0.5775567889,455.9910889,0.5772029161,
454.9935303,0.5827904344,454.9935303,0.5826380849,454.9935303,0.5824278593,
453.9957581,0.5880657434,453.9957581,0.5879087448,453.9957581,0.5874384046,
452.9978333,0.5927773118,452.9978333,0.5925061107,452.9978333,0.5921479464,
451.9997253,0.5970996618,451.9997253,0.5969720483,451.9997253,0.5967099667,
451.0014343,0.6008038521,451.0014343,0.6007154584,451.0014343,0.6004733443,
450.0029297,0.6046407819,450.0029297,0.6044513583,450.0029297,0.6045006514,
449.0042419,0.6083248854,449.0042419,0.6081848145,449.0042419,0.6078137159,
448.0054016,0.6120119095,448.0054016,0.6118299365,448.0054016,0.6116087437,
447.0063477,0.6156221628,447.0063477,0.6153862476,447.0063477,0.6152957678,
446.0071716,0.6192627549,446.0071716,0.6189764738,446.0071716,0.618625164,
445.0077515,0.6226994991,445.0077515,0.6224848032,445.0077515,0.6221934557,
444.0081482,0.6267269254,444.0081482,0.6265650392,444.0081482,0.6261741519,
443.0083923,0.6308546066,443.0083923,0.63085109,443.0083923,0.6305969357,
442.0084839,0.6351253986,442.0084839,0.6351796389,442.0084839,0.6348236799,
441.0083923,0.6392761469,441.0083923,0.6389570236,441.0083923,0.6388223171,
440.0080566,0.6433502436,440.0080566,0.6434881687,440.0080566,0.6433314085,
439.0075684,0.647959888,439.0075684,0.6479609609,439.0075684,0.6479069591,
438.0069275,0.6529057622,438.0069275,0.6529858112,438.0069275,0.6529852748,
437.006073,0.6578393579,437.006073,0.6580207944,437.006073,0.6577595472,
436.0050659,0.6633651257,436.0050659,0.6631665826,436.0050659,0.6629189849,
435.0038757,0.6680725813,435.0038757,0.6681286097,435.0038757,0.6680113673,
434.002533,0.6733506322,434.002533,0.6732178926,434.002533,0.6731303334,
433.0009766,0.6788864136,433.0009766,0.6789492965,433.0009766,0.6786193252,
431.9992371,0.6845508814,431.9992371,0.6843572259,431.9992371,0.6842585206,
430.997406,0.6898084879,430.997406,0.6897737384,430.997406,0.6895396709,
429.9952698,0.6951388717,429.9952698,0.6952193975,429.9952698,0.6953275204,
428.993042,0.7002976537,428.993042,0.7002206445,428.993042,0.7002301812,
427.9906006,0.7055656314,427.9906006,0.7056231499,427.9906006,0.705185473,
426.9880371,0.710488379,426.9880371,0.7102954388,426.9880371,0.7102516294,
425.9852295,0.7155153751,425.9852295,0.7156957388,425.9852295,0.7155671716,
424.9823303,0.7199825644,424.9823303,0.7199866772,424.9823303,0.7200629711,
424.0177917,0.724322319,424.0177917,0.7246153355,424.0177917,0.7243914604,
423.0144958,0.7296221852,423.0144958,0.7296565771,423.0144958,0.7296214104,
422.0111084,0.7341207266,422.0111084,0.734058857,422.0111084,0.734243989,
421.0074158,0.7388167977,421.0074158,0.7389518023,421.0074158,0.7389732599,
420.0036316,0.7438775897,420.0036316,0.7439278364,420.0036316,0.7439351678,
418.9996948,0.7485474348,418.9996948,0.7487518191,418.9996948,0.7487532496,
417.9955139,0.7536647916,417.9955139,0.7534211874,417.9955139,0.7536969781,
416.9912109,0.7581779361,416.9912109,0.7585631609,416.9912109,0.7582892179,
415.9867554,0.7633016706,415.9867554,0.7636486888,415.9867554,0.7636348009,
414.9821472,0.7683582306,414.9821472,0.7692818046,414.9821472,0.7686421275,
414.0159607,0.7733659148,414.0159607,0.7733683586,414.0159607,0.7738296986,
413.0109253,0.7785462737,413.0109253,0.778961122,413.0109253,0.779073298,
412.0058289,0.7840412855,412.0058289,0.784095943,412.0058289,0.7837342024,
411.0004883,0.7889991403,411.0004883,0.7894862294,411.0004883,0.789304018,
409.9949951,0.7951162457,409.9949951,0.7949579954,409.9949951,0.795152247,
408.9893799,0.800346911,408.9893799,0.8000066876,408.9893799,0.8008645773,
407.983551,0.8059103489,407.983551,0.8061653376,407.983551,0.8064768314,
407.0162659,0.8111597896,407.0162659,0.8112940788,407.0162659,0.8111671209,
406.0101624,0.8170657754,406.0101624,0.8171522021,406.0101624,0.8169828057,
405.0038452,0.8229020834,405.0038452,0.8231457472,405.0038452,0.8227391243,
403.997406,0.8292652369,403.997406,0.8295704722,403.997406,0.8300386667,
402.9907227,0.835087657,402.9907227,0.8350939155,402.9907227,0.8350376487,
401.9839478,0.8411841989,401.9839478,0.8415171504,401.9839478,0.8414330482,
401.0157471,0.8477505445,401.0157471,0.8473132253,401.0157471,0.84779948,
400.008606,0.8552207351,400.008606,0.8546239734,400.008606,0.8552359939,
399.0013428,0.8612420559,399.0013428,0.8613145351,399.0013428,0.8614410758,
397.9938965,0.8677508235,397.9938965,0.8671056628,397.9938965,0.8678292036,
396.9862671,0.8745020628,396.9862671,0.8741642237,396.9862671,0.8744809031,
396.0172729,0.8810616732,396.0172729,0.8815008402,396.0172729,0.8812229633,
395.0093689,0.8876595497,395.0093689,0.8883930445,395.0093689,0.8884484768,
394.0012817,0.895788908,394.0012817,0.8959637284,394.0012817,0.8959726095,
392.993042,0.9023290873,392.993042,0.9021359086,392.993042,0.9026319385,
391.9846497,0.9083403945,391.9846497,0.9090374708,391.9846497,0.9087331891,
391.0148926,0.9157494903,391.0148926,0.916482687,391.0148926,0.9163429141,
390.0061951,0.9239289761,390.0061951,0.9241086245,390.0061951,0.9241734147,
388.9972839,0.9319217205,388.9972839,0.931968689,388.9972839,0.932276547,
387.9882202,0.9381169677,387.9882202,0.9391443729,387.9882202,0.9392679334,
387.0178833,0.9459277987,387.0178833,0.9463979006,387.0178833,0.9461336732,
386.0085754,0.9531647563,386.0085754,0.9536147714,386.0085754,0.9541641474,
384.999054,0.9621965885,384.999054,0.9615186453,384.999054,0.9625436068,
383.9894104,0.9698817134,383.9894104,0.9698878527,383.9894104,0.9699707031,
383.0184631,0.9767926335,383.0184631,0.9767975211,383.0184631,0.9775960445,
382.0084839,0.9848960638,382.0084839,0.984244585,382.0084839,0.9852703214,
380.9983521,0.9924375415,380.9983521,0.9919509292,380.9983521,0.991773963,
379.9880676,1.000973701,379.9880676,1.001318216,379.9880676,1.001635551,
379.0165405,1.009144545,379.0165405,1.009203315,379.0165405,1.009482265,
378.0059509,1.016607642,378.0059509,1.015594363,378.0059509,1.016208529,
376.9952393,1.023517966,376.9952393,1.023883581,376.9952393,1.023426056,
375.984375,1.032003999,375.984375,1.031606317,375.984375,1.032328963,
375.012207,1.040151715,375.012207,1.040593624,375.012207,1.040477037,
374.0010376,1.049153805,374.0010376,1.049693823,374.0010376,1.050037146,
372.9896851,1.057459831,372.9896851,1.058181882,372.9896851,1.058881402,
372.0171204,1.06538856,372.0171204,1.065873384,372.0171204,1.065354347,
371.0055237,1.073915839,371.0055237,1.074019432,371.0055237,1.074338078,
369.9937134,1.082526326,369.9937134,1.083639503,369.9937134,1.083321095,
368.9818115,1.094160795,368.9818115,1.092972636,368.9818115,1.093893409,
368.0086365,1.101683021,368.0086365,1.101944923,368.0086365,1.102427959,
366.9964294,1.109157681,366.9964294,1.110638142,366.9964294,1.110227227,
365.9840393,1.118761301,365.9840393,1.119003892,365.9840393,1.119731069,
365.0104675,1.12831676,365.0104675,1.127754807,365.0104675,1.128219604,
363.9978333,1.139250994,363.9978333,1.138812304,363.9978333,1.139945745,
362.9850159,1.146006942,362.9850159,1.146239161,362.9850159,1.14683938,
362.0109863,1.154730678,362.0109863,1.155080199,362.0109863,1.154995441,
360.9979248,1.163070917,360.9979248,1.164082766,360.9979248,1.163791656,
359.9846497,1.17462182,359.9846497,1.174524069,359.9846497,1.174332857,
359.0102539,1.184352756,359.0102539,1.184726119,359.0102539,1.184896111,
357.9967346,1.193189502,357.9967346,1.193567038,357.9967346,1.193503737,
356.9830322,1.203017831,356.9830322,1.203217149,356.9830322,1.204228997,
356.0081787,1.212601304,356.0081787,1.212660193,356.0081787,1.212189436,
354.9942322,1.224139929,354.9942322,1.223454595,354.9942322,1.223004222,
354.019165,1.232140422,354.019165,1.234498262,354.019165,1.232751012,
353.0048828,1.245169401,353.0048828,1.24386549,353.0048828,1.24372828,
351.9904785,1.254488349,351.9904785,1.254175544,351.9904785,1.253551245,
351.0149536,1.263099909,351.0149536,1.263736248,351.0149536,1.263247132,
350.0003052,1.274214864,350.0003052,1.274010062,350.0003052,1.275508165,
348.9855042,1.287185788,348.9855042,1.289122581,348.9855042,1.289666295,
348.0095825,1.298259974,348.0095825,1.298502684,348.0095825,1.298560619,
346.9945068,1.309160471,346.9945068,1.31087184,346.9945068,1.309950471,
346.0183105,1.32039988,346.0183105,1.321945429,346.0183105,1.320858955,
345.0029297,1.332949042,345.0029297,1.332232594,345.0029297,1.331416965,
343.9874573,1.343842745,343.9874573,1.345116496,343.9874573,1.344930053,
343.0108643,1.357170463,343.0108643,1.357547879,343.0108643,1.359504819,
341.9950562,1.368867874,341.9950562,1.369775295,341.9950562,1.369385719,
341.018219,1.382304072,341.018219,1.382925868,341.018219,1.381436348,
340.0021667,1.395760536,340.0021667,1.39601934,340.0021667,1.39511764,
338.9859619,1.408553958,338.9859619,1.410314202,338.9859619,1.410995126,
338.008728,1.422082186,338.008728,1.421622872,338.008728,1.424100399,
336.9922485,1.435277462,336.9922485,1.434307098,336.9922485,1.435536742,
336.01474,1.449580431,336.01474,1.447455287,336.01474,1.447474599,
334.9980469,1.463978887,334.9980469,1.46401,334.9980469,1.463516593,
333.9811401,1.480842471,333.9811401,1.479885936,333.9811401,1.480589986,
333.0032654,1.49477303,333.0032654,1.494130969,333.0032654,1.493972063,
331.986145,1.508114576,331.986145,1.507967114,331.986145,1.508280754,
331.0080261,1.523054838,331.0080261,1.523285151,331.0080261,1.52586031,
329.9906006,1.540889502,329.9906006,1.541258335,329.9906006,1.540663838,
329.012207,1.561132669,329.012207,1.558880568,329.012207,1.557793736,
327.9945374,1.576566458,327.9945374,1.575545669,327.9945374,1.579661846,
327.0158997,1.591412306,327.0158997,1.591465354,327.0158997,1.59289968,
325.9979858,1.606762528,325.9979858,1.608754635,325.9979858,1.60963583,
325.0190735,1.62915659,325.0190735,1.626351833,325.0190735,1.628829598,
324.000885,1.647969246,324.000885,1.648053527,324.000885,1.64969945,
322.9825745,1.665847778,322.9825745,1.669888735,322.9825745,1.670986891,
322.0032959,1.684657216,322.0032959,1.687433481,322.0032959,1.686740279,
320.9847107,1.70991993,320.9847107,1.710582852,320.9847107,1.711061597,
320.005188,1.730858922,320.005188,1.730388284,320.005188,1.72832346,
318.9863892,1.755002499,318.9863892,1.754574299,318.9863892,1.753280997,
318.0066223,1.775030017,318.0066223,1.776014447,318.0066223,1.774067998,
316.9875488,1.798208594,316.9875488,1.797646046,316.9875488,1.79661715,
316.0075073,1.81651628,316.0075073,1.812632561,316.0075073,1.812699556,
314.9881897,1.841524243,314.9881897,1.842904925,314.9881897,1.843956351,
314.0079651,1.872190714,314.0079651,1.869502068,314.0079651,1.870098352,
312.9883728,1.895383,312.9883728,1.894489884,312.9883728,1.895846009,
312.0078735,1.912463069,312.0078735,1.912193418,312.0078735,1.912829995,
310.9880371,1.939869642,310.9880371,1.939489722,310.9880371,1.941775918,
310.0073242,1.969585419,310.0073242,1.971906424,310.0073242,1.969822526,
308.9872437,1.997056007,308.9872437,1.994684577,308.9872437,1.997732878,
308.0062561,2.024471998,308.0062561,2.024087667,308.0062561,2.02344656,
306.9859314,2.049355984,306.9859314,2.049691439,306.9859314,2.052498102,
306.0047302,2.092283249,306.0047302,2.088138342,306.0047302,2.089287996,
304.9841614,2.11608243,304.9841614,2.113369942,304.9841614,2.115423679,
304.0027466,2.15350008,304.0027466,2.152495861,304.0027466,2.151154757,
302.9819031,2.184370756,302.9819031,2.186131477,302.9819031,2.183148384,
302.0002441,2.216591835,302.0002441,2.215201378,302.0002441,2.215642929,
301.0184326,2.252838373,301.0184326,2.256072044,301.0184326,2.253747225,
299.9972839,2.298047304,299.9972839,2.297670603,299.9972839,2.291590691,

trial1,
trial1
Collection Time: 2/26/2025 3:46:27 PM
Operator Name  :
Scan Version 5.1.3.1042
Parameter List :
Instrument  Cary 60
Instrument Version  2.00
Start (nm)  800.0
Stop (nm)  300.0
X Mode  Nanometers
Y Mode  Abs
UV-Vis Scan Rate (nm/min)  600.00
UV-Vis Data Interval (nm)  1.00
UV-Vis Ave. Time (sec)  0.1000
Beam Mode  Dual Beam
Baseline Correction  Off
Cycle Mode  Off
Method Log     :
Method Name    :
Date/Time stamp: 2/26/2025 1:30:17 PM
Method Modifications:
UVVIS SAT Changed: 2/26/2025 1:32:06 PM, Old:0.0125, New:0.1000
Common SAT Changed: 2/26/2025 1:32:06 PM, Old:0.0125, New:0.1000
X Stop nm Changed: 2/26/2025 1:32:10 PM, Old:  200.0, New:  300.0
Common Interval nm Changed: 2/26/2025 1:32:10 PM, Old:     5.00, New:     1.00
UVVIS SAT Changed: 2/26/2025 2:56:33 PM, Old:0.1000, New:0.0125
Common SAT Changed: 2/26/2025 2:56:33 PM, Old:0.1000, New:0.0125
UVVIS SAT Changed: 2/26/2025 3:13:12 PM, Old:0.0125, New:0.1000
Common SAT Changed: 2/26/2025 3:13:12 PM, Old:0.0125, New:0.1000
UVVIS SAT Changed: 2/26/2025 3:16:38 PM, Old:0.1000, New:0.0125
Common SAT Changed: 2/26/2025 3:16:38 PM, Old:0.1000, New:0.0125
Common Interval nm Changed: 2/26/2025 3:16:39 PM, Old:     1.00, New:     2.00
UVVIS SAT Changed: 2/26/2025 3:21:30 PM, Old:0.0125, New:0.1000
Common SAT Changed: 2/26/2025 3:21:30 PM, Old:0.0125, New:0.1000
Common Interval nm Changed: 2/26/2025 3:21:32 PM, Old:     2.00, New:     1.00
UVVIS SAT Changed: 2/26/2025 3:26:42 PM, Old:0.1000, New:0.0125
Common SAT Changed: 2/26/2025 3:26:42 PM, Old:0.1000, New:0.0125
Common Interval nm Changed: 2/26/2025 3:26:44 PM, Old:     1.00, New:     2.00
UVVIS SAT Changed: 2/26/2025 3:28:41 PM, Old:0.0125, New:0.1000
Common SAT Changed: 2/26/2025 3:28:41 PM, Old:0.0125, New:0.1000
Common Interval nm Changed: 2/26/2025 3:28:48 PM, Old:     2.00, New:     1.00
UVVIS SAT Changed: 2/26/2025 3:38:36 PM, Old:0.1000, New:0.0125
Common SAT Changed: 2/26/2025 3:38:36 PM, Old:0.1000, New:0.0125
Common Interval nm Changed: 2/26/2025 3:38:37 PM, Old:     1.00, New:     2.00
UVVIS SAT Changed: 2/26/2025 3:39:47 PM, Old:0.0125, New:0.1000
Common SAT Changed: 2/26/2025 3:39:47 PM, Old:0.0125, New:0.1000
Common Interval nm Changed: 2/26/2025 3:39:49 PM, Old:     2.00, New:     1.00
Saved as C:\Users\Cary 60_3\Documents\B2-2025\sample4-pure.BSW
UVVIS SAT Changed: 2/26/2025 3:45:23 PM, Old:0.1000, New:0.0125
Common SAT Changed: 2/26/2025 3:45:23 PM, Old:0.1000, New:0.0125
Common Interval nm Changed: 2/26/2025 3:45:24 PM, Old:     1.00, New:     2.00
UVVIS SAT Changed: 2/26/2025 3:46:00 PM, Old:0.0125, New:0.1000
Common SAT Changed: 2/26/2025 3:46:00 PM, Old:0.0125, New:0.1000
Common Interval nm Changed: 2/26/2025 3:46:01 PM, Old:     2.00, New:     1.00
End Method Modifications
<Current Wavelength> , 304.0

trial2,
trial2
Collection Time: 2/26/2025 3:47:35 PM
Operator Name  :
Scan Version 5.1.3.1042
Parameter List :
Instrument  Cary 60
Instrument Version  2.00
Start (nm)  800.0
Stop (nm)  300.0
X Mode  Nanometers
Y Mode  Abs
UV-Vis Scan Rate (nm/min)  600.00
UV-Vis Data Interval (nm)  1.00
UV-Vis Ave. Time (sec)  0.1000
Beam Mode  Dual Beam
Baseline Correction  Off
Cycle Mode  Off
Method Log     :
Method Name    :
Date/Time stamp: 2/26/2025 1:30:17 PM
Method Modifications:
UVVIS SAT Changed: 2/26/2025 1:32:06 PM, Old:0.0125, New:0.1000
Common SAT Changed: 2/26/2025 1:32:06 PM, Old:0.0125, New:0.1000
X Stop nm Changed: 2/26/2025 1:32:10 PM, Old:  200.0, New:  300.0
Common Interval nm Changed: 2/26/2025 1:32:10 PM, Old:     5.00, New:     1.00
UVVIS SAT Changed: 2/26/2025 2:56:33 PM, Old:0.1000, New:0.0125
Common SAT Changed: 2/26/2025 2:56:33 PM, Old:0.1000, New:0.0125
UVVIS SAT Changed: 2/26/2025 3:13:12 PM, Old:0.0125, New:0.1000
Common SAT Changed: 2/26/2025 3:13:12 PM, Old:0.0125, New:0.1000
UVVIS SAT Changed: 2/26/2025 3:16:38 PM, Old:0.1000, New:0.0125
Common SAT Changed: 2/26/2025 3:16:38 PM, Old:0.1000, New:0.0125
Common Interval nm Changed: 2/26/2025 3:16:39 PM, Old:     1.00, New:     2.00
UVVIS SAT Changed: 2/26/2025 3:21:30 PM, Old:0.0125, New:0.1000
Common SAT Changed: 2/26/2025 3:21:30 PM, Old:0.0125, New:0.1000
Common Interval nm Changed: 2/26/2025 3:21:32 PM, Old:     2.00, New:     1.00
UVVIS SAT Changed: 2/26/2025 3:26:42 PM, Old:0.1000, New:0.0125
Common SAT Changed: 2/26/2025 3:26:42 PM, Old:0.1000, New:0.0125
Common Interval nm Changed: 2/26/2025 3:26:44 PM, Old:     1.00, New:     2.00
UVVIS SAT Changed: 2/26/2025 3:28:41 PM, Old:0.0125, New:0.1000
Common SAT Changed: 2/26/2025 3:28:41 PM, Old:0.0125, New:0.1000
Common Interval nm Changed: 2/26/2025 3:28:48 PM, Old:     2.00, New:     1.00
UVVIS SAT Changed: 2/26/2025 3:38:36 PM, Old:0.1000, New:0.0125
Common SAT Changed: 2/26/2025 3:38:36 PM, Old:0.1000, New:0.0125
Common Interval nm Changed: 2/26/2025 3:38:37 PM, Old:     1.00, New:     2.00
UVVIS SAT Changed: 2/26/2025 3:39:47 PM, Old:0.0125, New:0.1000
Common SAT Changed: 2/26/2025 3:39:47 PM, Old:0.0125, New:0.1000
Common Interval nm Changed: 2/26/2025 3:39:49 PM, Old:     2.00, New:     1.00
Saved as C:\Users\Cary 60_3\Documents\B2-2025\sample4-pure.BSW
UVVIS SAT Changed: 2/26/2025 3:45:23 PM, Old:0.1000, New:0.0125
Common SAT Changed: 2/26/2025 3:45:23 PM, Old:0.1000, New:0.0125
Common Interval nm Changed: 2/26/2025 3:45:24 PM, Old:     1.00, New:     2.00
UVVIS SAT Changed: 2/26/2025 3:46:00 PM, Old:0.0125, New:0.1000
Common SAT Changed: 2/26/2025 3:46:00 PM, Old:0.0125, New:0.1000
Common Interval nm Changed: 2/26/2025 3:46:01 PM, Old:     2.00, New:     1.00
End Method Modifications
<Current Wavelength> , 300.0

trial3,
trial3
Collection Time: 2/26/2025 3:48:40 PM
Operator Name  :
Scan Version 5.1.3.1042
Parameter List :
Instrument  Cary 60
Instrument Version  2.00
Start (nm)  800.0
Stop (nm)  300.0
X Mode  Nanometers
Y Mode  Abs
UV-Vis Scan Rate (nm/min)  600.00
UV-Vis Data Interval (nm)  1.00
UV-Vis Ave. Time (sec)  0.1000
Beam Mode  Dual Beam
Baseline Correction  Off
Cycle Mode  Off
Method Log     :
Method Name    :
Date/Time stamp: 2/26/2025 1:30:17 PM
Method Modifications:
UVVIS SAT Changed: 2/26/2025 1:32:06 PM, Old:0.0125, New:0.1000
Common SAT Changed: 2/26/2025 1:32:06 PM, Old:0.0125, New:0.1000
X Stop nm Changed: 2/26/2025 1:32:10 PM, Old:  200.0, New:  300.0
Common Interval nm Changed: 2/26/2025 1:32:10 PM, Old:     5.00, New:     1.00
UVVIS SAT Changed: 2/26/2025 2:56:33 PM, Old:0.1000, New:0.0125
Common SAT Changed: 2/26/2025 2:56:33 PM, Old:0.1000, New:0.0125
UVVIS SAT Changed: 2/26/2025 3:13:12 PM, Old:0.0125, New:0.1000
Common SAT Changed: 2/26/2025 3:13:12 PM, Old:0.0125, New:0.1000
UVVIS SAT Changed: 2/26/2025 3:16:38 PM, Old:0.1000, New:0.0125
Common SAT Changed: 2/26/2025 3:16:38 PM, Old:0.1000, New:0.0125
Common Interval nm Changed: 2/26/2025 3:16:39 PM, Old:     1.00, New:     2.00
UVVIS SAT Changed: 2/26/2025 3:21:30 PM, Old:0.0125, New:0.1000
Common SAT Changed: 2/26/2025 3:21:30 PM, Old:0.0125, New:0.1000
Common Interval nm Changed: 2/26/2025 3:21:32 PM, Old:     2.00, New:     1.00
UVVIS SAT Changed: 2/26/2025 3:26:42 PM, Old:0.1000, New:0.0125
Common SAT Changed: 2/26/2025 3:26:42 PM, Old:0.1000, New:0.0125
Common Interval nm Changed: 2/26/2025 3:26:44 PM, Old:     1.00, New:     2.00
UVVIS SAT Changed: 2/26/2025 3:28:41 PM, Old:0.0125, New:0.1000
Common SAT Changed: 2/26/2025 3:28:41 PM, Old:0.0125, New:0.1000
Common Interval nm Changed: 2/26/2025 3:28:48 PM, Old:     2.00, New:     1.00
UVVIS SAT Changed: 2/26/2025 3:38:36 PM, Old:0.1000, New:0.0125
Common SAT Changed: 2/26/2025 3:38:36 PM, Old:0.1000, New:0.0125
Common Interval nm Changed: 2/26/2025 3:38:37 PM, Old:     1.00, New:     2.00
UVVIS SAT Changed: 2/26/2025 3:39:47 PM, Old:0.0125, New:0.1000
Common SAT Changed: 2/26/2025 3:39:47 PM, Old:0.0125, New:0.1000
Common Interval nm Changed: 2/26/2025 3:39:49 PM, Old:     2.00, New:     1.00
Saved as C:\Users\Cary 60_3\Documents\B2-2025\sample4-pure.BSW
UVVIS SAT Changed: 2/26/2025 3:45:23 PM, Old:0.1000, New:0.0125
Common SAT Changed: 2/26/2025 3:45:23 PM, Old:0.1000, New:0.0125
Common Interval nm Changed: 2/26/2025 3:45:24 PM, Old:     1.00, New:     2.00
UVVIS SAT Changed: 2/26/2025 3:46:00 PM, Old:0.0125, New:0.1000
Common SAT Changed: 2/26/2025 3:46:00 PM, Old:0.0125, New:0.1000
Common Interval nm Changed: 2/26/2025 3:46:01 PM, Old:     2.00, New:     1.00
End Method Modifications
<Current Wavelength> , 300.0

