trial1,,trial2,,trial3,,
Wavelength (nm),Abs,Wavelength (nm),Abs,Wavelength (nm),Abs,
799.9968262,0.001671745325,799.9968262,0.001625103294,799.9968262,0.001179697108,
798.9871826,0.001555500319,798.9871826,0.001640927163,798.9871826,0.001608682331,
798.0119019,0.002213237109,798.0119019,0.001586494269,798.0119019,0.00169450941,
797.0014038,0.001426456613,797.0014038,0.0007019732147,797.0014038,0.001108738128,
795.9905396,0.001513676485,795.9905396,0.001413860824,795.9905396,0.0004817461013,
795.0140991,0.001370752114,795.0140991,0.001764524495,795.0140991,0.001753322431,
794.0025024,0.00184258353,794.0025024,0.001509987749,794.0025024,0.001345200581,
792.9903564,0.001181929372,792.9903564,0.001123634982,792.9903564,0.001105961273,
792.0128784,0.0009860796854,792.0128784,0.0007147558499,792.0128784,0.001560410368,
790.999939,0.001270372188,790.999939,0.0006796239759,790.999939,0.00153219793,
789.9866333,0.001122908201,789.9866333,0.001003333367,789.9866333,0.000895515841,
789.0079956,0.001224084757,789.0079956,0.001192182302,789.0079956,0.001069396501,
787.9938965,0.001301683253,787.9938965,0.0004492762091,787.9938965,0.001082449453,
787.0144653,0.0008963977452,787.0144653,0.0008096389356,787.0144653,0.0008426804561,
785.9996338,0.0005439458182,785.9996338,0.0004091910087,785.9996338,0.0006840315182,
784.984375,0.001251654117,784.984375,0.0005692947889,784.984375,0.0007454304723,
784.0037842,0.0006918096333,784.0037842,0.0009097568109,784.0037842,0.0007543246611,
782.9877319,0.0004032316501,782.9877319,0.0006947393995,782.9877319,-1.175207035E-005,
782.0064087,0.0006145014777,782.0064087,-8.24131057E-005,782.0064087,0.0001619210234,
780.989563,0.0004763558682,780.989563,0.000289423886,780.989563,9.024786414E-005,
780.0075684,0.0006664276007,780.0075684,-0.0002053307253,780.0075684,9.88956599E-005,
778.9899292,0.0004486542894,778.9899292,0.0003997079039,778.9899292,0.0003549121902,
778.0071411,0.000255750987,778.0071411,-0.0001041008873,778.0071411,0.0004803985357,
776.9887695,0.0002737786272,776.9887695,5.112779763E-005,776.9887695,-0.0001193696808,
776.005188,0.0008750501438,776.005188,-0.0001774379489,776.005188,0.0001258499251,
774.9860229,0.0003121934133,774.9860229,0.0001755423436,774.9860229,-8.801140211E-006,
774.001709,0.000195690227,774.001709,-0.0005619312869,774.001709,-0.0001068958954,
773.0169678,0.0005974965752,773.0169678,0.0001266267354,773.0169678,-1.449611773E-006,
771.9967041,-0.0004594916245,771.9967041,6.795598165E-005,771.9967041,0.0001521325903,
771.0112305,0.0001268079795,771.0112305,0.0004896501778,771.0112305,0.0003848877677,
769.9902344,0.000759277551,769.9902344,0.0004749305954,769.9902344,0.001076973858,
769.0039673,0.0005966411554,769.0039673,0.0003576842428,769.0039673,0.0002837770153,
768.0174561,0.0009823177243,768.0174561,0.00091515237,768.0174561,0.001157712541,
766.9953003,0.001381632756,766.9953003,0.00119747757,766.9953003,0.001468713745,
766.0079346,0.001429157564,766.0079346,0.001530639362,766.0079346,0.00115906226,
764.9850464,0.002238865709,764.9850464,0.002136568073,764.9850464,0.002059912775,
763.9970093,0.001885453123,763.9970093,0.001591040869,763.9970093,0.001726734685,
763.008667,0.002626733389,763.008667,0.002046674257,763.008667,0.002065400593,
761.9845581,0.002382908948,761.9845581,0.002222655807,761.9845581,0.001916158595,
760.9954224,0.002112402115,760.9954224,0.002397198929,760.9954224,0.001847236883,
760.0059814,0.001906824531,760.0059814,0.001754128141,760.0059814,0.001866188599,
759.0161133,0.001445104252,759.0161133,0.001103599672,759.0161133,0.001071342733,
757.9904785,0.0007072365843,757.9904785,0.0008559341077,757.9904785,0.0005777706974,
757,0.0003891109372,757,0.0002027344453,757,0.0007024917868,
756.0089722,-0.0001169370589,756.0089722,-2.13295134E-005,756.0089722,-0.0001730908552,
754.9822998,-0.0001620676921,754.9822998,-0.0004636807134,754.9822998,-0.0003997541789,
753.9906616,-0.0009650947759,753.9906616,-0.0004775405687,753.9906616,-0.0006362250424,
752.9986572,-0.0006333300262,752.9986572,-0.0004777474096,752.9986572,-0.0009463428869,
752.0062866,-0.001203426509,752.0062866,-0.0009243871318,752.0062866,-0.001246018102,
751.0135498,-0.0009736697539,751.0135498,-0.0009718617657,751.0135498,-0.001216746517,
749.9849854,-0.001296761096,749.9849854,-0.001351162675,749.9849854,-0.001556784264,
748.9915771,-0.001358130015,748.9915771,-0.001139247324,748.9915771,-0.001541720703,
747.9978027,-0.001870369655,747.9978027,-0.00195474783,747.9978027,-0.00173085439,
747.0036621,-0.002059824066,747.0036621,-0.002230705461,747.0036621,-0.002178010764,
746.0090942,-0.002340091858,746.0090942,-0.002640556777,746.0090942,-0.00276944018,
745.0142822,-0.003011051565,745.0142822,-0.003361606505,745.0142822,-0.003619215684,
743.9835205,-0.00409064116,743.9835205,-0.00424442254,743.9835205,-0.00389109063,
742.987915,-0.004848456942,742.987915,-0.004427822307,742.987915,-0.004405068234,
741.9920654,-0.005530175287,741.9920654,-0.005604134873,741.9920654,-0.005949437618,
740.9957886,-0.006368193775,740.9957886,-0.006897951011,740.9957886,-0.006713756826,
739.9992065,-0.007213509642,739.9992065,-0.007429607678,739.9992065,-0.007592030335,
739.0021973,-0.00826854445,739.0021973,-0.008390893228,739.0021973,-0.008487671614,
738.0048828,-0.008731908165,738.0048828,-0.009238773026,738.0048828,-0.009252456948,
737.0072021,-0.00956625957,737.0072021,-0.009871231392,737.0072021,-0.01010376588,
736.0091553,-0.01008393709,736.0091553,-0.01033374947,736.0091553,-0.0104259504,
735.0108032,-0.01079834998,735.0108032,-0.01105870306,735.0108032,-0.01136025973,
734.012085,-0.01140267309,734.012085,-0.0112365745,734.012085,-0.01160923764,
733.0130615,-0.01201003511,733.0130615,-0.01233096048,733.0130615,-0.01242711581,
732.0136719,-0.01247088518,732.0136719,-0.0124725448,732.0136719,-0.01282404363,
731.013916,-0.01334036514,731.013916,-0.01346806996,731.013916,-0.01362147741,
730.0137939,-0.01337555796,730.0137939,-0.0136082815,730.0137939,-0.0133013539,
729.0133057,-0.01391970553,729.0133057,-0.01413254347,729.0133057,-0.01437848434,
728.0125732,-0.01420389954,728.0125732,-0.01458078437,728.0125732,-0.01441634819,
727.0114746,-0.01456937008,727.0114746,-0.01460836828,727.0114746,-0.01483993139,
726.0100098,-0.01460196078,726.0100098,-0.01479279809,726.0100098,-0.01509782393,
725.0081787,-0.01512887515,725.0081787,-0.01514257398,725.0081787,-0.01497915015,
724.0060425,-0.01514867414,724.0060425,-0.01509342343,724.0060425,-0.01525890362,
723.00354,-0.01513867453,723.00354,-0.01497539878,723.00354,-0.01521481574,
722.0007935,-0.01525380556,722.0007935,-0.01529219281,722.0007935,-0.0155681977,
720.9975586,-0.01476797834,720.9975586,-0.01486669853,720.9975586,-0.01512412447,
719.9940186,-0.01467203908,719.9940186,-0.01473284792,719.9940186,-0.0147777861,
718.9901733,-0.01461237296,718.9901733,-0.0148280235,718.9901733,-0.01477408316,
717.9859009,-0.01417814475,717.9859009,-0.01411725767,717.9859009,-0.014295334,
717.017334,-0.01410392672,717.017334,-0.01409866475,717.017334,-0.01427359227,
716.0124512,-0.01349999104,716.0124512,-0.0136094857,716.0124512,-0.01363402046,
715.0072632,-0.01313422155,715.0072632,-0.01292365789,715.0072632,-0.01326740999,
714.00177,-0.01264440734,714.00177,-0.01247163955,714.00177,-0.01269383635,
712.9958496,-0.01174017321,712.9958496,-0.01168670505,712.9958496,-0.01194813848,
711.989624,-0.01123642363,711.989624,-0.01126013417,711.989624,-0.01127592381,
710.9831543,-0.01033840049,710.9831543,-0.01040911954,710.9831543,-0.01039248984,
710.012207,-0.009789997712,710.012207,-0.00991212111,710.012207,-0.01007306203,
709.0049438,-0.008797258139,709.0049438,-0.008831959218,709.0049438,-0.009032649919,
707.9973755,-0.008022878319,707.9973755,-0.008566561155,707.9973755,-0.008308924735,
706.989563,-0.007781242952,706.989563,-0.007479276974,706.989563,-0.007496171631,
706.017395,-0.006642432883,706.017395,-0.006450631656,706.017395,-0.006913747173,
705.0088501,-0.006128035486,705.0088501,-0.006199239288,705.0088501,-0.005946679972,
704,-0.005233237986,704,-0.004991171416,704,-0.005347240716,
702.9907837,-0.004264621995,702.9907837,-0.004117155913,702.9907837,-0.004369038157,
702.017334,-0.003794206306,702.017334,-0.003780246712,702.017334,-0.003811604111,
701.0074463,-0.002526047407,701.0074463,-0.002640659688,701.0074463,-0.002588220639,
699.9973145,-0.001629205886,699.9973145,-0.001692693913,699.9973145,-0.001683462644,
698.9868164,-0.001552502508,698.9868164,-0.001452618279,698.9868164,-0.001760349143,
698.012085,-0.0005606386694,698.012085,-0.0007141758106,698.012085,-0.0008267352241,
697.0009155,0.0003372179635,697.0009155,0.0003713635087,697.0009155,0.0001734188409,
695.9894409,0.0009751311154,695.9894409,0.0006880761357,695.9894409,0.001094049541,
695.0137939,0.001529210596,695.0137939,0.001887091086,695.0137939,0.001549343462,
694.0016479,0.00269757607,694.0016479,0.002343686065,694.0016479,0.002348552924,
692.9891968,0.00302253291,692.9891968,0.003079153597,692.9891968,0.003057854949,
692.0125732,0.003478340805,692.0125732,0.003688031575,692.0125732,0.003397247754,
690.9995117,0.003959965892,690.9995117,0.004162205849,690.9995117,0.003903622273,
689.986084,0.00512622809,689.986084,0.004806289915,689.986084,0.004966059234,
689.0085449,0.005353278946,689.0085449,0.005460295361,689.0085449,0.00535959471,
687.9944458,0.006040236447,687.9944458,0.005679337773,687.9944458,0.005723610986,
687.0162964,0.006520560943,687.0162964,0.00635525398,687.0162964,0.006095309276,
686.0015869,0.006728255656,686.0015869,0.006935208105,686.0015869,0.006565629039,
684.9865723,0.007351594511,684.9865723,0.007181970868,684.9865723,0.007081923075,
684.0074463,0.007929349318,684.0074463,0.007903224789,684.0074463,0.007652415894,
682.9918823,0.008135767654,682.9918823,0.008286819793,682.9918823,0.008119520731,
682.012146,0.008595814928,682.012146,0.008448799141,682.012146,0.008507108316,
680.9958496,0.008717022836,680.9958496,0.008751543239,680.9958496,0.008803870529,
680.015625,0.008887406439,680.015625,0.009121481329,680.015625,0.008995614015,
678.9985962,0.009674942121,678.9985962,0.009632910602,678.9985962,0.009384487756,
678.0177612,0.009728598408,678.0177612,0.01004291233,678.0177612,0.01009473298,
677.0001221,0.01050888374,677.0001221,0.01042763423,677.0001221,0.01028824039,
675.9822998,0.01057829242,675.9822998,0.01048416831,675.9822998,0.01072669402,
675.0004883,0.01086917426,675.0004883,0.01118351892,675.0004883,0.0108596459,
673.9819946,0.01129517052,673.9819946,0.01147416979,673.9819946,0.01133754849,
672.9995728,0.01190810185,672.9995728,0.0115211904,672.9995728,0.0115198344,
672.0168457,0.01172389742,672.0168457,0.01204948034,672.0168457,0.01195881516,
670.9974365,0.01236699801,670.9974365,0.01252579037,670.9974365,0.01215640362,
670.0140991,0.01265207212,670.0140991,0.01277974993,670.0140991,0.01243361365,
668.9940796,0.01261596102,668.9940796,0.01270191278,668.9940796,0.01275519747,
668.0101318,0.01244085934,668.0101318,0.01229762286,668.0101318,0.01225547027,
666.9894409,0.01222410519,666.9894409,0.01236281637,666.9894409,0.01232854091,
666.0049438,0.01221702248,666.0049438,0.01232888643,666.0049438,0.01223432925,
664.9836426,0.01208634302,664.9836426,0.01224942598,664.9836426,0.01186183747,
663.9985962,0.01227650605,663.9985962,0.01176158339,663.9985962,0.01175421663,
663.0131836,0.01216074266,663.0131836,0.0119586559,663.0131836,0.01192390639,
661.9909058,0.0120036006,661.9909058,0.01212073304,661.9909058,0.01199391391,
661.0050049,0.01202896144,661.0050049,0.0119654946,661.0050049,0.0121423481,
659.9821777,0.01216958091,659.9821777,0.01195218973,659.9821777,0.01174618397,
658.9955444,0.0120174652,658.9955444,0.01190334,658.9955444,0.01180778444,
658.008728,0.01182741486,658.008728,0.01213979255,658.008728,0.01184938755,
656.9849854,0.01207979489,656.9849854,0.01212259568,656.9849854,0.01202150993,
655.9974976,0.0122357402,655.9974976,0.01215475239,655.9974976,0.01196001284,
655.0097656,0.01235602517,655.0097656,0.01208027452,655.0097656,0.01203494985,
653.9851074,0.01248446852,653.9851074,0.01255360711,653.9851074,0.01222748682,
652.9967651,0.01232638396,652.9967651,0.01235019229,652.9967651,0.01247514412,
652.0081787,0.01266819611,652.0081787,0.01244917046,652.0081787,0.01245995983,
650.982605,0.01281478163,650.982605,0.01262331661,650.982605,0.01210651826,
649.9934082,0.01266960893,649.9934082,0.01261425577,649.9934082,0.012419709,
649.0039673,0.01302281488,649.0039673,0.01269692834,649.0039673,0.01292338595,
648.0141602,0.01297501754,648.0141602,0.01280400995,648.0141602,0.01279769186,
646.9874268,0.01298862044,646.9874268,0.01272856817,646.9874268,0.01292202622,
645.9971313,0.0126254214,645.9971313,0.01259720046,645.9971313,0.01278502867,
645.0064697,0.0131800333,645.0064697,0.01299950294,645.0064697,0.0131391827,
644.015564,0.01284968201,644.015564,0.01252584346,644.015564,0.01263141818,
642.9876099,0.01324936282,642.9876099,0.01286341436,642.9876099,0.01272206381,
641.9960938,0.01294578705,641.9960938,0.01306813676,641.9960938,0.01285125501,
641.0043945,0.01326916553,641.0043945,0.01311725099,641.0043945,0.01302534901,
640.0123291,0.0132606253,640.0123291,0.01305458508,640.0123291,0.01327319536,
638.9831543,0.01323401742,638.9831543,0.01332591008,638.9831543,0.01320482232,
637.9906006,0.01336357463,637.9906006,0.01332433522,637.9906006,0.01335177571,
636.9976196,0.01352996938,636.9976196,0.01293831971,636.9976196,0.01334934682,
636.0044556,0.01350561529,636.0044556,0.01339109801,636.0044556,0.01342778094,
635.0110474,0.0136339711,635.0110474,0.01341862325,635.0110474,0.01327215414,
634.0172729,0.01354107913,634.0172729,0.0133434739,634.0172729,0.01332959346,
632.9864502,0.01352689788,632.9864502,0.013592517,632.9864502,0.0134166209,
631.9921265,0.01378502417,631.9921265,0.01338332985,631.9921265,0.01307736617,
630.9975586,0.013580231,630.9975586,0.01335970405,630.9975586,0.01350048743,
630.0026245,0.01338514499,630.0026245,0.01335516572,630.0026245,0.0130763799,
629.0075073,0.01366001554,629.0075073,0.01329353359,629.0075073,0.01341835596,
628.012085,0.01361826528,628.012085,0.01354086492,628.012085,0.01365136076,
627.0163574,0.0134831313,627.0163574,0.01341186836,627.0163574,0.01338335592,
625.9835205,0.01360109076,625.9835205,0.01356992219,625.9835205,0.01356441993,
624.9873047,0.01373684965,624.9873047,0.01365141477,624.9873047,0.01377340127,
623.9907227,0.01426305529,623.9907227,0.01413710695,623.9907227,0.01372367796,
622.9939575,0.01406699419,622.9939575,0.01391421165,622.9939575,0.01410817262,
621.9968872,0.01420910377,621.9968872,0.0140927434,621.9968872,0.0140813794,
620.9995117,0.01409715507,620.9995117,0.01418497879,620.9995117,0.01416002586,
620.0018921,0.01447207853,620.0018921,0.01436142717,620.0018921,0.01433247793,
619.0040283,0.01488817669,619.0040283,0.01465330273,619.0040283,0.01491442975,
618.0058594,0.01516523398,618.0058594,0.01500547305,618.0058594,0.01495124213,
617.0073853,0.01531067956,617.0073853,0.01544659864,617.0073853,0.01530116051,
616.008728,0.01589757018,616.008728,0.01555318013,616.008728,0.01565463655,
615.0097656,0.0163036678,615.0097656,0.01622315496,615.0097656,0.01590782776,
614.010498,0.01677678525,614.010498,0.01677519828,614.010498,0.01659494266,
613.0109863,0.01694704965,613.0109863,0.01716016978,613.0109863,0.01712963358,
612.0112305,0.01799971983,612.0112305,0.01782025024,612.0112305,0.01789016277,
611.0111084,0.0188467633,611.0111084,0.01870161481,611.0111084,0.01886003651,
610.0108032,0.01980731636,610.0108032,0.01956085861,610.0108032,0.01949119195,
609.0101929,0.02056318894,609.0101929,0.02055263147,609.0101929,0.02054530382,
608.0093384,0.02207780443,608.0093384,0.02178049088,608.0093384,0.02203131467,
607.0082397,0.02329177037,607.0082397,0.02337166667,607.0082397,0.02327786945,
606.0068359,0.02495460212,606.0068359,0.02495484799,606.0068359,0.02492734976,
605.005188,0.02645269409,605.005188,0.02651550807,605.005188,0.02650521696,
604.0032959,0.02827066928,604.0032959,0.02833253145,604.0032959,0.02830719389,
603.0010986,0.03062581643,603.0010986,0.03038491495,603.0010986,0.03059034608,
601.9985962,0.03322221339,601.9985962,0.03317127377,601.9985962,0.03332659602,
600.9959106,0.0361540094,600.9959106,0.0362746343,600.9959106,0.03624612838,
599.9929199,0.03897353262,599.9929199,0.03926984966,599.9929199,0.03902019933,
598.989624,0.0429001078,598.989624,0.04283151031,598.989624,0.04281059653,
597.9862061,0.04704328999,597.9862061,0.04681533948,597.9862061,0.04690492898,
596.9824219,0.05067320913,596.9824219,0.05052874237,596.9824219,0.05057701841,
596.015625,0.05489360169,596.015625,0.05474596843,596.015625,0.05475093052,
595.0112305,0.05954780057,595.0112305,0.05961226299,595.0112305,0.05966117233,
594.0067139,0.06426685303,594.0067139,0.06407540292,594.0067139,0.06400382519,
593.0019531,0.06946832687,593.0019531,0.06911470741,593.0019531,0.06926967949,
591.9969482,0.07484072447,591.9969482,0.07530856878,591.9969482,0.07500369102,
590.9915771,0.08083219826,590.9915771,0.08090233058,590.9915771,0.08074066043,
589.9859619,0.08670914173,589.9859619,0.08669675142,589.9859619,0.08661644906,
589.017395,0.09201022983,589.017395,0.0920336768,589.017395,0.09181574732,
588.0112915,0.09742813557,588.0112915,0.09757976979,588.0112915,0.0974529162,
587.0048828,0.1031803712,587.0048828,0.1032332256,587.0048828,0.1033414528,
585.9983521,0.1094106659,585.9983521,0.1091981456,585.9983521,0.1091188341,
584.9914551,0.1152751669,584.9914551,0.1151829585,584.9914551,0.1151688173,
583.984375,0.121434696,583.984375,0.1213085875,583.984375,0.1209570393,
583.0143433,0.1266882867,583.0143433,0.1262810081,583.0143433,0.1263293177,
582.0066528,0.1314482093,582.0066528,0.1315119117,582.0066528,0.1313525736,
580.9987793,0.1363948882,580.9987793,0.1360897422,580.9987793,0.1364271343,
579.9907227,0.141249314,579.9907227,0.1412443966,579.9907227,0.1411007643,
578.9822388,0.1462409943,578.9822388,0.1461969614,578.9822388,0.145944804,
578.0109863,0.1505340487,578.0109863,0.1506177038,578.0109863,0.1504288018,
577.0021362,0.1547033936,577.0021362,0.1542479545,577.0021362,0.1543008238,
575.992981,0.1581571698,575.992981,0.1581606269,575.992981,0.1579578519,
574.9835815,0.1613018215,574.9835815,0.1613983661,574.9835815,0.1612695903,
574.0114136,0.1647152901,574.0114136,0.1644268185,574.0114136,0.1646769047,
573.0014648,0.1677072048,573.0014648,0.1676592976,573.0014648,0.1676626801,
571.991333,0.1703284085,571.991333,0.1703241169,571.991333,0.1702071577,
571.0183105,0.1727634966,571.0183105,0.1724581122,571.0183105,0.1724980921,
570.0077515,0.1748590916,570.0077515,0.1748607904,570.0077515,0.1748490185,
568.9967651,0.1767151356,568.9967651,0.1765808463,568.9967651,0.176533699,
567.9857178,0.1783915311,567.9857178,0.1781936735,567.9857178,0.1783365756,
567.0117798,0.1796803623,567.0117798,0.1795830727,567.0117798,0.1795719564,
566.0001831,0.1806465089,566.0001831,0.1807284504,566.0001831,0.1807118803,
564.9882813,0.1818584204,564.9882813,0.1817310005,564.9882813,0.1818220317,
564.0136719,0.1827617735,564.0136719,0.1825292706,564.0136719,0.1824919581,
563.0013428,0.1834019125,563.0013428,0.1833800375,563.0013428,0.1834513992,
561.9887695,0.1839958727,561.9887695,0.1840471178,561.9887695,0.1837290078,
561.0134277,0.1843466759,561.0134277,0.1844468415,561.0134277,0.1842755228,
560.0003052,0.1846710593,560.0003052,0.1847875118,560.0003052,0.1848275214,
558.9869385,0.1852563173,558.9869385,0.1849866956,558.9869385,0.185024038,
558.0109253,0.185487777,558.0109253,0.1851918399,558.0109253,0.1853747964,
556.9971313,0.1854971498,556.9971313,0.1852470487,556.9971313,0.1852228194,
555.9830933,0.1857116669,555.9830933,0.1855774224,555.9830933,0.185481593,
555.0063477,0.1856805384,555.0063477,0.1857336164,555.0063477,0.1856427938,
553.9918213,0.1856830865,553.9918213,0.1857132465,553.9918213,0.1856356859,
553.0146484,0.1854892522,553.0146484,0.185698241,553.0146484,0.1855326146,
551.9995728,0.1855474263,551.9995728,0.1855078191,551.9995728,0.1856895536,
550.984375,0.1856972128,550.984375,0.1858115941,550.984375,0.1856302172,
550.0064697,0.1859475374,550.0064697,0.1860541999,550.0064697,0.1855809242,
548.9907837,0.1859942973,548.9907837,0.1860300004,548.9907837,0.1860548705,
548.0124512,0.1861204356,548.0124512,0.1860884875,548.0124512,0.1861000061,
546.9962158,0.1861425638,546.9962158,0.1860611886,546.9962158,0.186046049,
546.017395,0.1864152253,546.017395,0.1863762885,546.017395,0.1862670034,
545.0007324,0.1866638809,545.0007324,0.1867036819,545.0007324,0.1865325719,
543.9838867,0.1870921552,543.9838867,0.1868611574,543.9838867,0.1869662404,
543.0043945,0.1876351535,543.0043945,0.1875781268,543.0043945,0.1874356568,
541.9870605,0.1878896654,541.9870605,0.1877489686,541.9870605,0.1877293885,
541.0071411,0.187844187,541.0071411,0.1878735423,541.0071411,0.1877225637,
539.9892578,0.188592881,539.9892578,0.188511923,539.9892578,0.1885413378,
539.0089111,0.1893855184,539.0089111,0.1892637461,539.0089111,0.1892522573,
537.9905396,0.1902389973,537.9905396,0.1900272071,537.9905396,0.190057233,
537.0097656,0.1905798614,537.0097656,0.190514192,537.0097656,0.1904129237,
535.9909058,0.1913855374,535.9909058,0.191199407,535.9909058,0.1911665946,
535.0097046,0.1923556179,535.0097046,0.1923017651,535.0097046,0.1921284497,
533.9904785,0.1927818358,533.9904785,0.1926684231,533.9904785,0.1926148534,
533.008728,0.1933308989,533.008728,0.1932072192,533.008728,0.1931694895,
531.9890747,0.1946238875,531.9890747,0.1943709403,531.9890747,0.1945230514,
531.006958,0.1958437264,531.006958,0.1957723796,531.006958,0.195665583,
529.9867554,0.1971616298,529.9867554,0.1970220208,529.9867554,0.1968996227,
529.0042114,0.1974422634,529.0042114,0.1973875761,529.0042114,0.1973038614,
527.9835205,0.1984228343,527.9835205,0.1982471794,527.9835205,0.1981198341,
527.0005493,0.2000467628,527.0005493,0.1997756362,527.0005493,0.1998161823,
526.017334,0.2011589706,526.017334,0.2009680569,526.017334,0.2008364201,
524.9959717,0.2026197463,524.9959717,0.202343002,524.9959717,0.2022150308,
524.0123291,0.2041515857,524.0123291,0.2038466334,524.0123291,0.2038114518,
522.9906006,0.2058248818,522.9906006,0.2054352462,522.9906006,0.2054811418,
522.0065308,0.207367301,522.0065308,0.2070469409,522.0065308,0.2070453614,
520.984314,0.2093322277,520.984314,0.209057197,520.984314,0.2091388553,
519.9998169,0.2111108154,519.9998169,0.2109429091,519.9998169,0.2109206617,
519.0150146,0.2129267007,519.0150146,0.212552458,519.0150146,0.2125492543,
517.9921265,0.2150324583,517.9921265,0.2146887034,517.9921265,0.2147108167,
517.006958,0.2171660513,517.006958,0.2169137597,517.006958,0.2168925554,
515.9836426,0.219698146,515.9836426,0.219430089,515.9836426,0.2193823904,
514.9980469,0.2218791097,514.9980469,0.2217796296,514.9980469,0.2217785418,
514.0122681,0.224958688,514.0122681,0.2246636599,514.0122681,0.2246324867,
512.9882813,0.2281505316,512.9882813,0.2278681397,512.9882813,0.2277240753,
512.0020752,0.2309660614,512.0020752,0.2308125943,512.0020752,0.2308806926,
511.015625,0.2344369143,511.015625,0.2341109067,511.015625,0.2340101004,
509.9909363,0.2377946228,509.9909363,0.2375112623,509.9909363,0.2377662957,
509.0040894,0.2415030152,509.0040894,0.2412817478,509.0040894,0.2411812842,
508.0169983,0.2452712804,508.0169983,0.2449916452,508.0169983,0.2449378222,
506.9917297,0.2485895902,506.9917297,0.2483298779,506.9917297,0.2483596951,
506.0042419,0.2515058815,506.0042419,0.2511775494,506.0042419,0.2511110306,
505.0164795,0.2535906136,505.0164795,0.2533151805,505.0164795,0.2532746196,
503.9906006,0.2557873726,503.9906006,0.2556676567,503.9906006,0.2555186749,
503.0025024,0.2581561804,503.0025024,0.2578798532,503.0025024,0.2579829991,
502.0140991,0.2601011395,502.0140991,0.2598080337,502.0140991,0.2598955929,
500.9876099,0.2619049847,500.9876099,0.2616542578,500.9876099,0.2616925538,
499.9988708,0.2636145055,499.9988708,0.2631777525,499.9988708,0.2632784545,
499.0098267,0.2654363811,499.0098267,0.2651689947,499.0098267,0.2653607726,
497.982666,0.2674183547,497.982666,0.2671055794,497.982666,0.2670988142,
496.9932556,0.2691885829,496.9932556,0.2689858675,496.9932556,0.269007951,
496.0036621,0.271458894,496.0036621,0.2711336613,496.0036621,0.2712156773,
495.013916,0.2733640671,495.013916,0.2733396292,495.013916,0.273299545,
493.9858704,0.2756896317,493.9858704,0.2756280899,493.9858704,0.2756717503,
492.9956665,0.2780702412,492.9956665,0.277908951,492.9956665,0.2778190374,
492.0053406,0.2795636654,492.0053406,0.2793458998,492.0053406,0.2793799341,
491.0147095,0.2823278606,491.0147095,0.2821783721,491.0147095,0.2820191681,
489.9858398,0.2853485644,489.9858398,0.2851281166,489.9858398,0.2851844132,
488.9948425,0.2877357602,488.9948425,0.2875377834,488.9948425,0.2874964774,
488.0036316,0.2893769443,488.0036316,0.2891904712,488.0036316,0.289052695,
487.0122681,0.2923968434,487.0122681,0.2922290266,487.0122681,0.2921820581,
485.9824829,0.296203196,485.9824829,0.2960275114,485.9824829,0.2960063815,
484.9906921,0.298676759,484.9906921,0.2985771,484.9906921,0.2984293103,
483.9986877,0.3005052805,483.9986877,0.3003799021,483.9986877,0.3003111184,
483.0065613,0.3036971688,483.0065613,0.3034869134,483.0065613,0.3034546971,
482.0141296,0.306861639,482.0141296,0.3068570793,482.0141296,0.3067521155,
480.983429,0.3101902902,480.983429,0.3102178276,480.983429,0.31014359,
479.9906616,0.3135192692,479.9906616,0.3133352101,479.9906616,0.3133448958,
478.9976501,0.3164660931,478.9976501,0.3162706792,478.9976501,0.3162611723,
478.0044861,0.3192423284,478.0044861,0.319229722,478.0044861,0.3190759122,
477.0111389,0.3220724463,477.0111389,0.3219411671,477.0111389,0.3217700124,
476.0175476,0.3247410059,476.0175476,0.3248752654,476.0175476,0.3248652816,
474.9855652,0.327909708,474.9855652,0.327688992,474.9855652,0.3275120854,
473.9916382,0.3307743967,473.9916382,0.3306491375,473.9916382,0.3305569887,
472.997467,0.3331310153,472.997467,0.332952261,472.997467,0.3329565227,
472.0031433,0.3354924917,472.0031433,0.3356026411,472.0031433,0.3355236053,
471.0086365,0.3381226063,471.0086365,0.3380638063,471.0086365,0.3381758034,
470.0138245,0.3408802152,470.0138245,0.3408001959,470.0138245,0.3406576216,
469.0189514,0.3439728618,469.0189514,0.3438346684,469.0189514,0.3436957896,
467.9855957,0.346791625,467.9855957,0.3466981053,467.9855957,0.3467309177,
466.9902344,0.3498266935,466.9902344,0.3497156501,466.9902344,0.3496652544,
465.994751,0.353182584,465.994751,0.3530002236,465.994751,0.3528189659,
464.9990845,0.3568077385,464.9990845,0.356569916,464.9990845,0.3566458523,
464.0032043,0.3619197905,464.0032043,0.3617887795,464.0032043,0.3617048264,
463.0071411,0.3683267832,463.0071411,0.3681971431,463.0071411,0.3680834472,
462.0108643,0.375649482,462.0108643,0.3753928542,462.0108643,0.3755050302,
461.0144653,0.3837286532,461.0144653,0.383479923,461.0144653,0.3835548162,
460.0178223,0.3922007382,460.0178223,0.3916355968,460.0178223,0.3918312788,
458.9826965,0.4029769003,458.9826965,0.4028365314,458.9826965,0.4026735723,
457.9856873,0.4119880795,457.9856873,0.4114401639,457.9856873,0.4115159512,
456.9884644,0.4170278907,456.9884644,0.4167529643,456.9884644,0.4168188274,
455.9910889,0.4195225239,455.9910889,0.419389993,455.9910889,0.4193158746,
454.9935303,0.4203256071,454.9935303,0.4201157391,454.9935303,0.4200348258,
453.9957581,0.4198647738,453.9957581,0.4195327461,453.9957581,0.419579953,
452.9978333,0.4185596108,452.9978333,0.4182036817,452.9978333,0.4181656837,
451.9997253,0.4172841609,451.9997253,0.4169957042,451.9997253,0.4168599844,
451.0014343,0.4165475965,451.0014343,0.4162005782,451.0014343,0.4160962999,
450.0029297,0.4158979356,450.0029297,0.4157091677,450.0029297,0.4155863822,
449.0042419,0.415705055,449.0042419,0.4154155254,449.0042419,0.4152745605,
448.0054016,0.4159959555,448.0054016,0.4158443511,448.0054016,0.4157837927,
447.0063477,0.4169160426,447.0063477,0.4166453183,447.0063477,0.4165769517,
446.0071716,0.4180688858,446.0071716,0.4177704155,446.0071716,0.4176906645,
445.0077515,0.4198242128,445.0077515,0.4196003377,445.0077515,0.4193651974,
444.0081482,0.4221065938,444.0081482,0.421646893,444.0081482,0.4216392338,
443.0083923,0.4248311818,443.0083923,0.4244501889,443.0083923,0.4243456423,
442.0084839,0.4277581871,442.0084839,0.4273579419,442.0084839,0.4272705913,
441.0083923,0.4308786392,441.0083923,0.4305072129,441.0083923,0.4302709699,
440.0080566,0.4344367683,440.0080566,0.4338946044,440.0080566,0.43390131,
439.0075684,0.4383838773,439.0075684,0.437912792,439.0075684,0.4378497601,
438.0069275,0.4426186085,438.0069275,0.4421930611,438.0069275,0.4421081543,
437.006073,0.4474931955,437.006073,0.4468497336,437.006073,0.4470441639,
436.0050659,0.4520001411,436.0050659,0.4516694546,436.0050659,0.4514118731,
435.0038757,0.4560763538,435.0038757,0.4557237029,435.0038757,0.4555122852,
434.002533,0.4601840973,434.002533,0.4596351981,434.002533,0.4595345855,
433.0009766,0.4640797079,433.0009766,0.4635351896,433.0009766,0.4636074007,
431.9992371,0.4676701427,431.9992371,0.4672030807,431.9992371,0.467148453,
430.997406,0.4703527987,430.997406,0.4699147642,430.997406,0.4700915515,
429.9952698,0.4726801217,429.9952698,0.4720113575,429.9952698,0.4720776379,
428.993042,0.4744777381,428.993042,0.473937273,428.993042,0.4739552438,
427.9906006,0.4759200513,427.9906006,0.4755663574,427.9906006,0.4755133688,
426.9880371,0.4774071574,426.9880371,0.4769413769,426.9880371,0.4768117964,
425.9852295,0.4786601663,425.9852295,0.4781843126,425.9852295,0.4780977368,
424.9823303,0.4795185328,424.9823303,0.479368329,424.9823303,0.4791779518,
424.0177917,0.4810076654,424.0177917,0.4805387557,424.0177917,0.4805952609,
423.0144958,0.4825002253,423.0144958,0.4822201133,423.0144958,0.4820766151,
422.0111084,0.4842424095,422.0111084,0.4835117757,422.0111084,0.4834900498,
421.0074158,0.4854807556,421.0074158,0.4851350486,421.0074158,0.4850853384,
420.0036316,0.4874902666,420.0036316,0.4868677557,420.0036316,0.4870389402,
418.9996948,0.4893738329,418.9996948,0.4889286757,418.9996948,0.4886035025,
417.9955139,0.4910494685,417.9955139,0.4908658564,417.9955139,0.4907313883,
416.9912109,0.4930415154,416.9912109,0.4928542078,416.9912109,0.4926626086,
415.9867554,0.495447427,415.9867554,0.4950629473,415.9867554,0.4949015677,
414.9821472,0.4978988767,414.9821472,0.4974239469,414.9821472,0.4973160326,
414.0159607,0.500095129,414.0159607,0.4996915758,414.0159607,0.4994678795,
413.0109253,0.5025732517,413.0109253,0.5021445155,413.0109253,0.5022549033,
412.0058289,0.505205214,412.0058289,0.5047719479,412.0058289,0.5047208071,
411.0004883,0.5075798035,411.0004883,0.5072551966,411.0004883,0.5071969032,
409.9949951,0.5104272366,409.9949951,0.5099458098,409.9949951,0.5100575089,
408.9893799,0.5134370327,408.9893799,0.5131154656,408.9893799,0.5130746365,
407.983551,0.5163213611,407.983551,0.5159373283,407.983551,0.515859127,
407.0162659,0.5193645954,407.0162659,0.518946588,407.0162659,0.5187173486,
406.0101624,0.5224467516,406.0101624,0.5221295953,406.0101624,0.5218147039,
405.0038452,0.5257223845,405.0038452,0.5252975821,405.0038452,0.5251027346,
403.997406,0.5292876959,403.997406,0.5288785696,403.997406,0.5289596319,
402.9907227,0.5326564312,402.9907227,0.5323637724,402.9907227,0.5322114229,
401.9839478,0.5363068581,401.9839478,0.536321938,401.9839478,0.5358070731,
401.0157471,0.5403801203,401.0157471,0.5398615599,401.0157471,0.5396511555,
400.008606,0.5445132852,400.008606,0.5441687703,400.008606,0.5441302061,
399.0013428,0.5487000346,399.0013428,0.548298955,399.0013428,0.5480285287,
397.9938965,0.5524897575,397.9938965,0.5522850156,397.9938965,0.5520044565,
396.9862671,0.5568370819,396.9862671,0.5564239025,396.9862671,0.5563499928,
396.0172729,0.5610712171,396.0172729,0.5606876016,396.0172729,0.5607408285,
395.0093689,0.5649825335,395.0093689,0.564658463,395.0093689,0.5646464825,
394.0012817,0.5700736642,394.0012817,0.5697989464,394.0012817,0.569573462,
392.993042,0.5740047097,392.993042,0.5735376477,392.993042,0.5735827088,
391.9846497,0.5771842599,391.9846497,0.5771199465,391.9846497,0.5768836737,
391.0148926,0.5818013549,391.0148926,0.5816230178,391.0148926,0.5813348889,
390.0061951,0.5862752795,390.0061951,0.5861185193,390.0061951,0.5860484838,
388.9972839,0.5906512141,388.9972839,0.5904913545,388.9972839,0.5904042125,
387.9882202,0.5942638516,387.9882202,0.59427917,387.9882202,0.594263196,
387.0178833,0.598198235,387.0178833,0.5982432961,387.0178833,0.5977367759,
386.0085754,0.6028866172,386.0085754,0.6026506424,386.0085754,0.602301836,
384.999054,0.6074399352,384.999054,0.6071755886,384.999054,0.6069643497,
383.9894104,0.6116492152,383.9894104,0.6115396619,383.9894104,0.6110835075,
383.0184631,0.6161621213,383.0184631,0.6158624291,383.0184631,0.6156413555,
382.0084839,0.6202979684,382.0084839,0.6200777292,382.0084839,0.6197961569,
380.9983521,0.6248307824,380.9983521,0.6248825788,380.9983521,0.6245133281,
379.9880676,0.6302781105,379.9880676,0.6303130984,379.9880676,0.6301885247,
379.0165405,0.6355884671,379.0165405,0.6351633072,379.0165405,0.6351335049,
378.0059509,0.6393942237,378.0059509,0.6390439272,378.0059509,0.6392877102,
376.9952393,0.6445872188,376.9952393,0.6444123387,376.9952393,0.6445492506,
375.984375,0.650351584,375.984375,0.6496475339,375.984375,0.6494660378,
375.012207,0.6549629569,375.012207,0.6549494267,375.012207,0.6548671126,
374.0010376,0.6616159678,374.0010376,0.6611261964,374.0010376,0.6611309052,
372.9896851,0.6668636203,372.9896851,0.666665554,372.9896851,0.666738987,
372.0171204,0.6711969376,372.0171204,0.6713400483,372.0171204,0.6712740064,
371.0055237,0.6769133806,371.0055237,0.6767035723,371.0055237,0.6769809723,
369.9937134,0.6827329397,369.9937134,0.682954967,369.9937134,0.6827201843,
368.9818115,0.6896554828,368.9818115,0.6897591949,368.9818115,0.6898075342,
368.0086365,0.6946692467,368.0086365,0.6944022179,368.0086365,0.6944026351,
366.9964294,0.7000174522,366.9964294,0.7000354528,366.9964294,0.6995375156,
365.9840393,0.7059657574,365.9840393,0.705503583,365.9840393,0.7055665851,
365.0104675,0.7115985155,365.0104675,0.7117993236,365.0104675,0.7112621069,
363.9978333,0.7186841965,363.9978333,0.7186169028,363.9978333,0.7186645865,
362.9850159,0.723030448,362.9850159,0.7230767608,362.9850159,0.722977519,
362.0109863,0.7279631495,362.0109863,0.7277343869,362.0109863,0.7278284431,
360.9979248,0.7336406708,360.9979248,0.7338705659,360.9979248,0.7332262993,
359.9846497,0.740606308,359.9846497,0.7405388355,359.9846497,0.7404472232,
359.0102539,0.7471733689,359.0102539,0.7471077442,359.0102539,0.7469856739,
357.9967346,0.7524673343,357.9967346,0.7525579929,357.9967346,0.7521213889,
356.9830322,0.7587574124,356.9830322,0.7587905526,356.9830322,0.7584063411,
356.0081787,0.7648841739,356.0081787,0.7643693089,356.0081787,0.7648023963,
354.9942322,0.7714743614,354.9942322,0.7714665532,354.9942322,0.7710299492,
354.019165,0.7776846886,354.019165,0.777228415,354.019165,0.7775710225,
353.0048828,0.7847958803,353.0048828,0.7847855687,353.0048828,0.7845481038,
351.9904785,0.7912428379,351.9904785,0.7906866074,351.9904785,0.7912023664,
351.0149536,0.7969813347,351.0149536,0.7969935536,351.0149536,0.7970572114,
350.0003052,0.8043281436,350.0003052,0.8040828705,350.0003052,0.8039942384,
348.9855042,0.8128222227,348.9855042,0.8122388721,348.9855042,0.8127820492,
348.0095825,0.8199639916,348.0095825,0.8201742768,348.0095825,0.8202106953,
346.9945068,0.8266960979,346.9945068,0.8268435001,346.9945068,0.8265495896,
346.0183105,0.833988905,346.0183105,0.8337254524,346.0183105,0.8333476782,
345.0029297,0.8407735825,345.0029297,0.8412421346,345.0029297,0.8407492638,
343.9874573,0.8499600291,343.9874573,0.8490778208,343.9874573,0.8492919803,
343.0108643,0.8577563763,343.0108643,0.8582666516,343.0108643,0.8577030897,
341.9950562,0.8648760915,341.9950562,0.8651083112,341.9950562,0.8649014831,
341.018219,0.8730221987,341.018219,0.8733226657,341.018219,0.8732619286,
340.0021667,0.8821009398,340.0021667,0.8819308877,340.0021667,0.8817596436,
338.9859619,0.8911297917,338.9859619,0.8910707235,338.9859619,0.8912370205,
338.008728,0.9002681375,338.008728,0.8997077942,338.008728,0.8999218345,
336.9922485,0.9078722596,336.9922485,0.908012569,336.9922485,0.9080223441,
336.01474,0.9171696305,336.01474,0.9171287417,336.01474,0.9168109298,
334.9980469,0.9266360998,334.9980469,0.9265077114,334.9980469,0.9264437556,
333.9811401,0.9367691875,333.9811401,0.9363616705,333.9811401,0.9362297058,
333.0032654,0.9457274079,333.0032654,0.9457806945,333.0032654,0.9458191395,
331.986145,0.9549455643,331.986145,0.9552027583,331.986145,0.9550427198,
331.0080261,0.9661254287,331.0080261,0.9652484655,331.0080261,0.9661254883,
329.9906006,0.9765574336,329.9906006,0.9770515561,329.9906006,0.9763002396,
329.012207,0.9885112643,329.012207,0.9892822504,329.012207,0.9888738394,
327.9945374,1.000957727,327.9945374,1.000899911,327.9945374,1.000443578,
327.0158997,1.010573983,327.0158997,1.010370016,327.0158997,1.010234118,
325.9979858,1.023085475,325.9979858,1.023334742,325.9979858,1.023480892,
325.0190735,1.035362601,325.0190735,1.03512907,325.0190735,1.035338402,
324.000885,1.049223781,324.000885,1.04917407,324.000885,1.048829556,
322.9825745,1.062777638,322.9825745,1.06311202,322.9825745,1.062331557,
322.0032959,1.074775338,322.0032959,1.075059175,322.0032959,1.074435115,
320.9847107,1.089648366,320.9847107,1.089771509,320.9847107,1.089871764,
320.005188,1.102147937,320.005188,1.103192925,320.005188,1.102442503,
318.9863892,1.118487716,318.9863892,1.118373394,318.9863892,1.119001269,
318.0066223,1.132478356,318.0066223,1.13289547,318.0066223,1.132316589,
316.9875488,1.147176504,316.9875488,1.147181869,316.9875488,1.14735353,
316.0075073,1.161375046,316.0075073,1.161434889,316.0075073,1.16039753,
314.9881897,1.176814318,314.9881897,1.176571846,314.9881897,1.17665565,
314.0079651,1.194108725,314.0079651,1.194554687,314.0079651,1.1944561,
312.9883728,1.210889459,312.9883728,1.210906029,312.9883728,1.211062431,
312.0078735,1.225196838,312.0078735,1.225544572,312.0078735,1.225547194,
310.9880371,1.244802117,310.9880371,1.243651271,310.9880371,1.244129062,
310.0073242,1.264041424,310.0073242,1.263861775,310.0073242,1.263362646,
308.9872437,1.282633543,308.9872437,1.28343308,308.9872437,1.282828927,
308.0062561,1.30322206,308.0062561,1.302743435,308.0062561,1.303309441,
306.9859314,1.321256876,306.9859314,1.320620656,306.9859314,1.319971204,
306.0047302,1.341953874,306.0047302,1.343375921,306.0047302,1.341670394,
304.9841614,1.365134001,304.9841614,1.364678025,304.9841614,1.364609361,
304.0027466,1.389061689,304.0027466,1.389056563,304.0027466,1.38987267,
302.9819031,1.411935329,302.9819031,1.412486315,302.9819031,1.411940575,
302.0002441,1.434013605,302.0002441,1.433863878,302.0002441,1.433816195,
301.0184326,1.458947062,301.0184326,1.460678101,301.0184326,1.459534287,
299.9972839,1.488434553,299.9972839,1.48879385,299.9972839,1.488502741,

trial1,
trial1
Collection Time: 2/26/2025 2:22:35 PM
Operator Name  :
Scan Version 5.1.3.1042
Parameter List :
Instrument  Cary 60
Instrument Version  2.00
Start (nm)  800.0
Stop (nm)  300.0
X Mode  Nanometers
Y Mode  Abs
UV-Vis Scan Rate (nm/min)  600.00
UV-Vis Data Interval (nm)  1.00
UV-Vis Ave. Time (sec)  0.1000
Beam Mode  Dual Beam
Baseline Correction  Off
Cycle Mode  Off
Method Log     :
Method Name    :
Date/Time stamp: 2/26/2025 1:30:17 PM
Method Modifications:
UVVIS SAT Changed: 2/26/2025 1:32:06 PM, Old:0.0125, New:0.1000
Common SAT Changed: 2/26/2025 1:32:06 PM, Old:0.0125, New:0.1000
X Stop nm Changed: 2/26/2025 1:32:10 PM, Old:  200.0, New:  300.0
Common Interval nm Changed: 2/26/2025 1:32:10 PM, Old:     5.00, New:     1.00
End Method Modifications
<Current Wavelength> , 300.0

trial2,
trial2
Collection Time: 2/26/2025 2:25:26 PM
Operator Name  :
Scan Version 5.1.3.1042
Parameter List :
Instrument  Cary 60
Instrument Version  2.00
Start (nm)  800.0
Stop (nm)  300.0
X Mode  Nanometers
Y Mode  Abs
UV-Vis Scan Rate (nm/min)  600.00
UV-Vis Data Interval (nm)  1.00
UV-Vis Ave. Time (sec)  0.1000
Beam Mode  Dual Beam
Baseline Correction  Off
Cycle Mode  Off
Method Log     :
Method Name    :
Date/Time stamp: 2/26/2025 1:30:17 PM
Method Modifications:
UVVIS SAT Changed: 2/26/2025 1:32:06 PM, Old:0.0125, New:0.1000
Common SAT Changed: 2/26/2025 1:32:06 PM, Old:0.0125, New:0.1000
X Stop nm Changed: 2/26/2025 1:32:10 PM, Old:  200.0, New:  300.0
Common Interval nm Changed: 2/26/2025 1:32:10 PM, Old:     5.00, New:     1.00
End Method Modifications
<Current Wavelength> , 301.0

trial3,
trial3
Collection Time: 2/26/2025 2:26:30 PM
Operator Name  :
Scan Version 5.1.3.1042
Parameter List :
Instrument  Cary 60
Instrument Version  2.00
Start (nm)  800.0
Stop (nm)  300.0
X Mode  Nanometers
Y Mode  Abs
UV-Vis Scan Rate (nm/min)  600.00
UV-Vis Data Interval (nm)  1.00
UV-Vis Ave. Time (sec)  0.1000
Beam Mode  Dual Beam
Baseline Correction  Off
Cycle Mode  Off
Method Log     :
Method Name    :
Date/Time stamp: 2/26/2025 1:30:17 PM
Method Modifications:
UVVIS SAT Changed: 2/26/2025 1:32:06 PM, Old:0.0125, New:0.1000
Common SAT Changed: 2/26/2025 1:32:06 PM, Old:0.0125, New:0.1000
X Stop nm Changed: 2/26/2025 1:32:10 PM, Old:  200.0, New:  300.0
Common Interval nm Changed: 2/26/2025 1:32:10 PM, Old:     5.00, New:     1.00
End Method Modifications
<Current Wavelength> , 306.0

